,theta,phi,dtheta,dphi,position_x,position_y,position_z,timestep
0,1.2566370614359172,0.4014257279586958,0.0,0.8377580409572782,0.442814856831731,0.17161868226607188,-0.1564034221695633,0.0
1,1.2557236649291337,0.4098049345457566,-0.1845140353440361,0.8382562100762987,0.4409282090474421,0.17768448285820915,-0.15495334464807778,0.0
2,1.2529656473574775,0.4181941399359781,-0.3689015452366651,0.8397715995183161,0.4399366659683365,0.18238070862384342,-0.15229250493221602,0.01
3,1.2483649139509403,0.4266036604838431,-0.5530327371850636,0.8423370888075759,0.4338158550956224,0.1900531174604379,-0.16026108826294336,0.02
4,1.2419246859911055,0.4350442530324932,-0.7367738196832211,0.8460082580445638,0.429086322139075,0.19853052029044024,-0.16269775863966005,0.03
5,1.2336495506928609,0.4435273466740457,-0.9199850061406356,0.850864427266157,0.4227243791054019,0.2037825613048267,-0.1725594593697983,0.04
6,1.2235455309728978,0.4520652873408124,-1.1025185345987665,0.8570102014080966,0.4151432489055944,0.2110544628927279,-0.18196729536147377,0.05
7,1.2116201749226732,0.4606716007250024,-1.2842167080956035,0.864577615689995,0.4129570417714606,0.2112175870187621,-0.18669122257175302,0.06
8,1.1978826647578804,0.4693612801486797,-1.464909959862633,0.873729013000868,0.4094183036661412,0.21649298974649114,-0.18843417421944755,0.07
9,1.182343944980264,0.4781511075379643,-1.644414946275566,0.884660830341853,0.40347728241578507,0.2227667029473505,-0.1938583984054849,0.08
10,1.1650168694682768,0.4870600177009703,-1.8225326682947245,0.8976085294409051,0.39917131439703646,0.2256192514206797,-0.19939462166997984,0.09
11,1.1459163672220525,0.4961095188187147,-1.999046618551596,0.9128529826808836,0.39492246065712994,0.22107287483529575,-0.21251596194303926,0.1
12,1.125059626542411,0.505324185647439,-2.1737209456029807,0.9307287271182764,0.3882155506634482,0.22220214363086233,-0.22341641298016876,0.11
13,1.1024662975481494,0.514732246706542,-2.3462986182480243,0.9516346375891516,0.38562333807636995,0.21906976539883166,-0.23087459587173845,0.12
14,1.0781587131667307,0.5243662931283835,-2.51649955984788,0.9760477606640596,0.37755800915759463,0.22254406739922764,-0.2406742358175501,0.13
15,1.0521621291230223,0.5342641455088117,-2.6840187033613607,1.0045413180409122,0.3683183240120125,0.2225067360003172,-0.2546220034314932,0.14
16,1.024504984074838,0.544469926942854,-2.8485238894481792,1.0378082659647272,0.357815495836666,0.22635539684527134,-0.2659535772614849,0.15
17,0.9952191820139372,0.555035406814893,-3.009653488193777,1.0766923395927532,0.349033872740617,0.22566833503618158,-0.2779373279026847,0.16
18,0.9643404005313092,0.5660217028546995,-3.1670135631990672,1.1222292995486778,0.3406439757589635,0.2240905352782833,-0.28938748034049294,0.17
19,0.9319084307830612,0.5775014615127215,-3.320174304699928,1.1757022596393518,0.3306375875304817,0.22298243263061152,-0.30159181097993665,0.18
20,0.8979675583650846,0.5895616835054045,-3.4686653197277053,1.2387167118610185,0.3211301577551132,0.21873455546290063,-0.3146913027502084,0.19
21,0.8625669993967032,0.6023074296696475,-3.6119691556244793,1.3133035032435936,0.309652412844179,0.21616595009589953,-0.32770057253370066,0.2
22,0.825761413854717,0.6158667434821835,-3.74951210460056,1.402062093909816,0.2963470087771354,0.2144872196116371,-0.34084260738956007,0.21
23,0.7876115300938398,0.6303972791531566,-3.880650817067791,1.5083628327257397,0.28161387015896133,0.2113534790069214,-0.3549976549862865,0.22
24,0.7481849330298335,0.6460953582961563,-4.0046524110763295,1.636637255824334,0.26592959914443015,0.20714273596548635,-0.36928760503923697,0.23
25,0.7075570978773545,0.6632085443810783,-4.120664374561675,1.7928022116023483,0.25181619585965637,0.2022919005949944,-0.3816629277994341,0.24
26,0.6658127989920476,0.6820534089960919,-4.227668196430495,1.984891695929196,0.2362458038490671,0.19748635333721398,-0.3939378890247512,0.25
27,0.6230481024516755,0.7030411186565545,-4.324406542567751,2.224018293608726,0.21658102232997403,0.19050953692336142,-0.40841005999822005,0.26
28,0.5793732858299601,0.7267150660045736,-4.409266384849546,2.5258701339176945,0.19851859915216316,0.18429579377039468,-0.42026827882818246,0.27
29,0.5349172653904789,0.753807498825969,-4.480086739156504,2.9130996238034887,0.17854608191024626,0.17834649870835093,-0.43164084958790894,0.28
30,0.4898345404690576,0.7853268829969298,-4.5338332646106485,3.419234685714168,0.16047782139859723,0.17086272157477955,-0.44164782260894175,0.29
31,0.4443164715687828,0.8226962944463119,-4.566029499306598,4.095250343721669,0.1402687846465536,0.162328710425968,-0.4516348722421919,0.3
32,0.3986102792307394,0.8679786611655328,-4.56972669904618,5.020868714511351,0.1208024716025405,0.15273183429266135,-0.4605211717698942,0.31
33,0.3530523148518609,0.924252660722227,-4.533566919543157,6.324262107806191,0.10145545853290369,0.14237564028296343,-0.46843992890006125,0.32
34,0.3081286968792357,0.9962504603660746,-4.4380125673295385,8.215981939920812,0.08059122835951103,0.13177812365119046,-0.47554135470900605,0.33
35,0.2645899248007976,1.091429249604145,-4.247857666809637,11.042147924763906,0.05975425041925484,0.11982359207567611,-0.48173824462971065,0.34
36,0.2236717249468222,1.2216137042332442,-3.897782384815613,15.336080028877552,0.038081023837450954,0.10714225809284283,-0.4868987288484723,0.35
37,0.1875041633810608,1.404574683740349,-3.269718388959266,21.694878368826323,0.015489921420514571,0.09459966991307685,-0.490724938011839,0.36
38,0.1597038892402862,1.6609668763763563,-2.1896219072280654,29.78620125773288,-0.0074064425058398,0.08135835273168752,-0.49328081561134524,0.37
39,0.1454184010687951,1.9933153285437923,-0.5735415464154179,35.863418305941096,-0.029497282359279856,0.06858541752986995,-0.4943945295365538,0.38
40,0.1487510847758562,2.351374364290224,1.2377901711273838,34.28380005706546,-0.051776839049844314,0.055171071988039264,-0.49424215902095714,0.39
41,0.1686894219115453,2.658922702582873,2.6716193233232004,26.701783706796807,-0.07380846697412893,0.04146898502627232,-0.4927805124838235,0.4
42,0.2002290072054992,2.886396084363756,3.564577513598736,19.00948256123547,-0.09548482154310584,0.027584941744988215,-0.4900221626047202,0.41
43,0.2386212257326186,3.047133424716975,4.069597336507595,13.44798922551411,-0.1167180568393301,0.01360363951099298,-0.48599571623596216,0.42
44,0.2808312700598199,3.1621272121799886,4.347105656626872,9.773136747081,-0.1374242622222688,-0.0004123391854158003,-0.48074359291524754,0.43
45,0.3251113601610771,3.247061991750166,4.493933026763868,7.353549889387059,-0.15752090991168569,-0.014407024868250875,-0.47432014565590636,0.44
46,0.3704398908120071,3.3120061476455147,4.562218908154756,5.721546874367959,-0.17693029478551908,-0.0283253065811319,-0.46679047526079004,0.45
47,0.4161847349828242,3.3632750541932226,4.580109403148923,4.586403421218758,-0.1955821688158303,-0.042112877160891016,-0.4582293321236952,0.46
48,0.4619273847349326,3.404895926853972,4.563406112548795,3.7727232934758,-0.2134151384349576,-0.055717435703453506,-0.44871989709106885,0.47
49,0.507371937561772,3.439510376813199,4.521435804442253,3.1733809716560413,-0.23037737320982443,-0.06908983649766957,-0.4383524385761605,0.48
50,0.552296597205954,3.4689042988478818,4.46000027277931,2.721253404249309,-0.24642693319942136,-0.08218496851839396,-0.4272228897701509,0.49
51,0.5965267858952882,3.49432033271566,4.382902427199522,2.373053209514452,-0.26153183908441086,-0.09496238385718009,-0.41543139361065073,0.5
52,0.6399196210593533,3.516646146529436,4.292765968024837,2.100063439542068,-0.27566993641560533,-0.10738671924608616,-0.40308085874446875,0.51
53,0.6823546003405468,3.53653098447924,4.191492582079459,1.8827231102193287,-0.2888285822841817,-0.11942794547148117,-0.3902755640520818,0.52
54,0.7237278051683067,3.5544598218323173,4.080526035852556,1.7073820321318436,-0.3010041773818175,-0.13106146994665036,-0.37711984341071025,0.53
55,0.7639481662453458,3.570801804663484,3.9610095605134985,1.564303615150991,-0.3122015664690482,-0.1422681122174393,-0.3637168763480168,0.54
56,0.8029349735030064,3.585842674883505,3.833882239571278,1.446403634677672,-0.32243333134028734,-0.15303396956793824,-0.3501676041541876,0.55
57,0.8406161566882111,3.599806967475528,3.699939455150751,1.348434183497489,-0.33171900102165236,-0.16335018877357174,-0.3365697850206335,0.56
58,0.876927053929154,3.612873520224224,3.559871588496265,1.266443640958348,-0.3400842037538858,-0.17321265952370993,-0.3230171960404103,0.5700000000000001
59,0.9118094954536848,3.625186514691631,3.414289264775708,1.197411813879488,-0.3475597842834372,-0.18262164459501015,-0.30959898461439495,0.58
60,0.9452110945864184,3.636863470870432,3.263740118030223,1.1389986993048469,-0.35418090823406917,-0.19158136126324887,-0.29639916710242353,0.59
61,0.9770846775801832,3.648001126902993,3.108720136712334,1.0893684547439468,-0.359986173030906,-0.20009952760756214,-0.28349626854297943,0.6
62,1.0073878083323156,3.658679825805981,2.9496815127796068,1.04706409366771,-0.365016742181469,-0.20818688628186813,-0.2709630939952662,0.61
63,1.0360823795594591,3.6689668321271016,2.787038224691614,1.0109169955898205,-0.36931551685934966,-0.21585671703936404,-0.2588666195474019,0.62
64,1.0631342520065137,3.6789188710242455,2.621170153155152,0.979980700934956,-0.37292635583660166,-0.22312434786658478,-0.24726798925769514,0.63
65,1.0885129297945186,3.688584095248552,2.45242625402488,0.9534819030531586,-0.3758933519982243,-0.23000667307709963,-0.23622260320202895,0.64
66,1.1121912643135274,3.698003626512294,2.281127135002313,0.930783790762468,-0.3782601710499501,-0.23652168519893493,-0.2257802813088832,0.65
67,1.134145181914011,3.7072127770964896,2.1075672658124462,0.9113583779363112,-0.3800694556700034,-0.24268802602197112,-0.2159854876890261,0.66
68,1.1543534325353568,3.716242029174904,1.9320169735899189,0.894765453331912,-0.38136229630638163,-0.24852456079860075,-0.2068776006139528,0.67
69,1.1727973576506534,3.725117829238545,1.7547243227650031,0.8806364632904479,-0.382177768107045,-0.2540499783560612,-0.19849121406753126,0.68
70,1.1894606767127058,3.7338632405967456,1.575916943252016,0.8686621094062176,-0.3825525321022265,-0.2592824187937877,-0.19085645780695462,0.6900000000000001
71,1.2043292917974184,3.7424984864739934,1.3958038466881837,0.858582771869485,-0.3825204977212242,-0.2642391295357649,-0.1839993240348676,0.7000000000000001
72,1.2173911104523454,3.751041408547349,1.2145772542165687,0.8501811021369667,-0.382112543009697,-0.2689361497747091,-0.17794199003893854,0.71
73,1.2286358869355487,3.759507860078888,1.0324144484174855,0.8432762958692489,-0.38135628847497904,-0.27338802280446667,-0.17270312744027833,0.72
74,1.2380550821178808,3.7679120485414113,0.8494796548082084,0.8377196788751243,-0.38027592031586777,-0.27760753534805765,-0.16829818996619286,0.73
75,1.245641742351287,3.776266839430771,0.6659259536999921,0.833391328874983,-0.3788920588271263,-0.2816054827837937,-0.16473967288982924,0.74
76,1.251390397598179,3.7845840305375815,0.4818972203161626,0.8301975237365238,-0.377221667994669,-0.28539045909970173,-0.16203733844451162,0.75
77,1.255296979086673,3.792874604126975,0.2975300893614805,0.8280688590868732,-0.3752780026689524,-0.2889686704718409,-0.16019840260919715,0.76
78,1.2573587567132305,3.801148963116439,0.112955939281973,0.8269589195720031,-0.3730705901865031,-0.29234377154910146,-0.15922767967392168,0.77
79,1.2575742963638887,3.809417156357177,-0.071697109024805,0.8268434219074803,-0.37060524387963956,-0.29551672380685523,-0.1591276819393021,0.78
80,1.2559434372717468,3.817689097452164,-0.2563021844991867,0.8277197767437594,-0.3678841065338936,-0.29848567570319384,-0.15989867278925934,0.79
81,1.2524672894733662,3.8259747811438607,-0.440731654733709,0.8296070421658219,-0.3649057225035723,-0.3012458648056066,-0.16153867221711354,0.8
82,1.2471482513714067,3.834284501153524,-0.6248551168559499,0.8325462659107166,-0.361665137848654,-0.3037895425377357,-0.16404341470972653,0.81
83,1.239990047355413,3.842629073443851,-0.8085373960144171,0.8366012374873131,-0.35815402848187483,-0.30610592272133386,-0.16740626020888577,0.8200000000000001
84,1.2309977853774874,3.851020069211987,-0.9916365569481564,0.841859696670946,-0.35436085690779345,-0.3081811556111791,-0.1716180597073994,0.8300000000000001
85,1.2201780343254942,3.859470062520333,-1.1740019339568517,0.8484350728113912,-0.3502710586521,-0.3099983296514877,-0.1766669779104875,0.84
86,1.2075389209849716,3.867992898372864,-1.3554721841953126,0.8564688618394255,-0.3458672599122691,-0.31153750367845745,-0.18253827632191014,0.85
87,1.193090246335181,3.876603988301067,-1.5358733684107866,0.8661337871154131,-0.3411295282829716,-0.31277577273669266,-0.18921406111175254,0.86
88,1.176843620890244,3.8853206422187214,-1.7150170617577638,0.8776379394704804,-0.3360356585932476,-0.3136873710493561,-0.1966730011921971,0.87
89,1.1588126187814185,3.8941624475584,-1.8926984947876595,0.8912301552806288,-0.33056149592431655,-0.3142438159383597,-0.20489002307769003,0.88
90,1.1390129502943964,3.903151709686022,-2.068694720594146,0.9072069752794232,-0.32468129772424337,-0.31441409661837505,-0.2138359903191051,0.89
91,1.1174626526452542,3.912313971547072,-2.242762797659426,0.9259216397412462,-0.318368136581024,-0.31416491174388206,-0.22347737657061684,0.9
92,1.0941822989283754,3.921678635778081,-2.414637968143297,0.9477957301954486,-0.31159434464425456,-0.31346095934226975,-0.23377594263298657,0.91
93,1.0691952254401127,3.9312797196206457,-2.584031796677184,0.9733342822995144,-0.3043319998745947,-0.3122652822885717,-0.2446884290880309,0.92
94,1.0425277780319122,3.941156782627204,-2.7506302129678164,1.0031454960723896,-0.2965534532483756,-0.3105396717383935,-0.25616627733383307,0.93
95,1.0142095788621872,3.951356080407357,-2.914091369411071,1.037966599163167,-0.28823189474595307,-0.3082451299137828,-0.2681553928892593,0.94
96,0.9842738160233732,3.9619320160948783,-3.0740431775226105,1.0786980383513087,-0.2793419544276155,-0.30534239231269955,-0.2805959656754128,0.95
97,0.9527575602073034,3.972948987159833,-3.230080316692025,1.126449080141984,-0.2698603331609667,-0.3017925077910856,-0.29342236252102466,0.96
98,0.919702115121925,3.984483762198164,-3.3817604035924065,1.182599244103186,-0.2597664556637233,-0.29755747304923175,-0.3065631072788482,0.97
99,0.8851534122215445,3.99662857587277,-3.5285988513376365,1.2488820136412166,-0.2490431365173538,-0.29260091587547365,-0.31994096358927326,0.98
100,0.8491624661442838,4.009495208817113,-3.6700617027548543,1.3275003602758697,-0.2376772477658788,-0.2868888191110257,-0.3334731343954386,0.99
101,0.8117859161564425,4.023220436686138,-3.8055553393554034,1.4212884285030918,-0.2256603747471042,-0.2803902747672363,-0.34707159072005617,1.0
102,0.7730866926691792,4.037973410789753,-3.934411356735841,1.5339413558971586,-0.21298944501743694,-0.2730782551502653,-0.36064353990505754,1.01
103,0.7331348695053648,4.053965808530051,-4.055863900353607,1.6703475387755482,-0.19966731376184868,-0.2649303853498873,-0.37409204045727534,1.02
104,0.692008797178186,4.071466027171163,-4.169015088779545,1.8370780306593768,-0.18570328807366318,-0.2559296991618385,-0.38731676685312877,1.03
105,0.6497966690268244,4.090819396456279,-4.272781289022145,2.043122183539713,-0.17111357209737857,-0.24606535859749248,-0.4002149231879824,1.04
106,0.6065987670059476,4.112477543761598,-4.365807948991676,2.30101816821649,-0.15592161539581026,-0.23533331576404268,-0.4126822995281751,1.05
107,0.562530797833317,4.137042002749561,-4.446331467523184,2.6286324227823155,-0.14015834819434805,-0.2237368952282692,-0.4246144594158875,1.06
108,0.517729022107044,4.1653305467779,-4.511949196463879,3.05203307084568,-0.12386228946279519,-0.2112872751951143,-0.4359080414372494,1.07
109,0.4723584167958915,4.198480743728606,-4.559224737433739,3.6102551368425577,-0.10707951716289152,-0.19800384706381036,-0.44646215242962445,1.08
110,0.4266261386951416,4.23811612460263,-4.58298707961151,4.363413270675243,-0.08986349411011013,-0.1839144352358394,-0.4561798252204984,1.09
111,0.3808045920120417,4.286620307259217,-4.57503870520157,5.406825614332358,-0.0722747464030008,-0.1690553621040324,-0.46496951037273015,1.1
112,0.3352725768564861,4.347600375014509,-4.521680973678189,6.89584265660417,-0.05438038908868991,-0.15347134491913614,-0.4727465701316872,1.11
113,0.2905917442576131,4.426679763852422,-4.398813170039742,9.088330469926692,-0.03625346735721932,-0.13721520200360626,-0.47943474471891223,1.12
114,0.2476536405293244,4.532821306705282,-4.1621139922971615,12.40722109007551,-0.017971969162178296,-0.1203472814614419,-0.48496756610032615,1.13
115,0.2079648493781073,4.680224926584358,-3.7285631491544886,17.47299768968949,0.00038301029835847495,-0.10293421503727133,-0.48928968993610744,1.14
116,0.174156971066465,4.889314183877713,-2.952426340338495,24.784874645530355,0.018731263228863634,-0.08504538897011706,-0.4923580217613729,1.15
117,0.1505747567768092,5.178900608788133,-1.6537344845717672,33.050422591704795,0.03699929313816928,-0.06674346444169024,-0.49414204664407646,1.16
118,0.1426143212810155,5.534681837343239,0.1294068765115235,36.80976725181442,0.05511172882655397,-0.048078782003937344,-0.4946222074136646,1.17
119,0.1528501312429446,5.88540087308932,1.873856742216643,32.07152951548893,0.07296445159774928,-0.02913638344968869,-0.49378867945965754,1.18
120,0.1781488398878797,6.164698812516991,3.10095877637685,23.65882890435164,0.09045948751874658,-0.01006226758858728,-0.49164604329621264,1.19
121,0.2130658983382462,6.364404371528037,3.820664324363809,16.599713137351696,0.10753315933980426,0.009019746790869376,-0.48821641083665845,1.2
122,0.2534419089010323,6.504932022522459,4.218710481394736,11.795646460132042,0.12412435536728451,0.02802606569914298,-0.4835366418856831,1.21
123,0.2968064444226146,6.6062755039981385,4.433752330924525,8.663348147176817,0.1401670123201702,0.04688375218121993,-0.47765586193267556,1.22
124,0.3417517202876359,6.681976805534672,4.542932605257003,6.59391142862952,0.15559714268709351,0.06552004482262719,-0.47063430911276877,1.23
125,0.3874428529559956,6.740514716366974,4.58715554204694,5.185838130618682,0.17035707005423661,0.08386305135170796,-0.46254238432874095,1.24
126,0.4333511331033122,6.787199818453244,4.588655239878305,4.196785496534764,0.184396976558793,0.10184401143634035,-0.45345953774347997,1.25
127,0.4791176564050512,6.82544101680709,4.560099781326904,3.481133025299932,0.19767542417919834,0.11939906561790044,-0.4434729865562798,1.26
128,0.5244825819062725,6.857494753999659,4.509099150463846,2.94950362711922,0.2101595015586784,0.1364704567289556,-0.43267632052701716,1.27
129,0.5692470494397465,6.88490100648123,4.440476719788483,2.545443870429406,0.2218247812475365,0.15300731840603496,-0.4211680507097812,1.28
130,0.6132518029263274,6.908740997603629,4.357455524255471,2.2322234239580947,0.23265513452814657,0.16896616182761748,-0.40905014916869714,1.29
131,0.6563646916940311,6.929793523305401,4.262302676422721,1.9852613659666043,0.24264241904288952,0.18431112557352416,-0.39642662053756605,1.3
132,0.6984730775088158,6.948632503114428,4.156692872426907,1.7876752243383396,0.2517860509105094,0.1990140285634267,-0.3834021400590325,1.31
133,0.7394790524538,6.965689568465906,4.041920551967867,1.6275935408240323,0.2600924756335998,0.2130542547195556,-0.3700807866732344,1.32
134,0.7792963202982486,6.981295279080837,3.919027496626741,1.4964888381979675,0.26757455500044053,0.2264184933790883,-0.35656489363404803,1.33
135,0.8178480905398537,6.995706923979904,3.78888159495376,1.3881166245726766,0.2742508890151724,0.23910035776327823,-0.34295403305962147,1.34
136,0.8550656041836484,7.0091276885919145,3.652226572139532,1.2978237449296004,0.2801450925124333,0.251099903104988,-0.3293441449333293,1.35
137,0.8908870620890437,7.021720135152455,3.5097140164416483,1.2220874379564957,0.2852850457202576,0.26242306544261296,-0.3158268155367632,1.36
