,theta,phi,dtheta,dphi,position_x,position_y,position_z,timestep
0,1.2566370614359172,0.4014257279586958,0.0,0.8377580409572782,0.42537604854829386,0.18632053169345808,-0.15596872423883945,0.0
1,1.2557236649291337,0.4098049345457566,-0.1845140353440361,0.8382562100762987,0.42305014953406805,0.19274865716704198,-0.14795599406138824,0.0
2,1.2529656473574775,0.4181941399359781,-0.3689015452366651,0.8397715995183161,0.4196348383101272,0.2039339928570221,-0.16407789790000363,0.01
3,1.2483649139509403,0.4266036604838431,-0.5530327371850636,0.8423370888075759,0.42614250251953967,0.1843418733137136,-0.166039287044677,0.02
4,1.2419246859911055,0.4350442530324932,-0.7367738196832211,0.8460082580445638,0.419830295111296,0.1870666203196555,-0.1708972748223937,0.03
5,1.2336495506928609,0.4435273466740457,-0.9199850061406356,0.850864427266157,0.4248313045812369,0.19975768977972766,-0.17974842752210834,0.04
6,1.2235455309728978,0.4520652873408124,-1.1025185345987665,0.8570102014080966,0.40228826205128293,0.19104053458448367,-0.15880932040834578,0.05
7,1.2116201749226732,0.4606716007250024,-1.2842167080956035,0.864577615689995,0.4097707842064471,0.2222674515250342,-0.16508333754763324,0.06
8,1.1978826647578804,0.4693612801486797,-1.464909959862633,0.873729013000868,0.39765272542439756,0.19909835740815457,-0.1895828909420316,0.07
9,1.182343944980264,0.4781511075379643,-1.644414946275566,0.884660830341853,0.42004164870892885,0.21089145286864935,-0.19937722605646754,0.08
10,1.1650168694682768,0.4870600177009703,-1.8225326682947245,0.8976085294409051,0.4150207468797315,0.21421996610040234,-0.1891813804636171,0.09
11,1.1459163672220525,0.4961095188187147,-1.999046618551596,0.9128529826808836,0.4006636647402414,0.2185828929815467,-0.2182955958250038,0.1
12,1.125059626542411,0.505324185647439,-2.1737209456029807,0.9307287271182764,0.3749663951108972,0.22006343657911573,-0.20606727291950225,0.11
13,1.1024662975481494,0.514732246706542,-2.3462986182480243,0.9516346375891516,0.39525963430487576,0.22444769488277472,-0.22783275717418192,0.12
14,1.0781587131667307,0.5243662931283835,-2.51649955984788,0.9760477606640596,0.3765993653588649,0.22834837671705355,-0.246518993242812,0.13
15,1.0521621291230223,0.5342641455088117,-2.6840187033613607,1.0045413180409122,0.3625545402727737,0.2158489568576436,-0.2587931403314797,0.14
16,1.024504984074838,0.544469926942854,-2.8485238894481792,1.0378082659647272,0.3565233013551466,0.24022756261529105,-0.24719528168446914,0.15
17,0.9952191820139372,0.555035406814893,-3.009653488193777,1.0766923395927532,0.35978412549340866,0.22969095660681943,-0.2860837784472291,0.16
18,0.9643404005313092,0.5660217028546995,-3.1670135631990672,1.1222292995486778,0.34749354595441934,0.2246854760355981,-0.29583707326385944,0.17
19,0.9319084307830612,0.5775014615127215,-3.320174304699928,1.1757022596393518,0.3509825225002284,0.22560449410259356,-0.2942196886280427,0.18
20,0.8979675583650846,0.5895616835054045,-3.4686653197277053,1.2387167118610185,0.3240445725327671,0.20317989261823943,-0.31223719549131224,0.19
21,0.8625669993967032,0.6023074296696475,-3.6119691556244793,1.3133035032435936,0.3060707672641678,0.22395194567821305,-0.3348893768865055,0.2
22,0.825761413854717,0.6158667434821835,-3.74951210460056,1.402062093909816,0.30071953138001045,0.227641315884254,-0.3313946224313305,0.21
23,0.7876115300938398,0.6303972791531566,-3.880650817067791,1.5083628327257397,0.27286746792709354,0.21366516365771182,-0.3463639816242672,0.22
24,0.7481849330298335,0.6460953582961563,-4.0046524110763295,1.636637255824334,0.2683407230387917,0.20677986791136582,-0.35575913536148773,0.23
25,0.7075570978773545,0.6632085443810783,-4.120664374561675,1.7928022116023483,0.24600702468969096,0.21921079428280682,-0.38971169943808226,0.24
26,0.6658127989920476,0.6820534089960919,-4.227668196430495,1.984891695929196,0.22990824869985016,0.1916522538054763,-0.37509041517839214,0.25
27,0.6230481024516755,0.7030411186565545,-4.324406542567751,2.224018293608726,0.2267608550436184,0.2067547075001855,-0.41207487072269133,0.26
28,0.5793732858299601,0.7267150660045736,-4.409266384849546,2.5258701339176945,0.20442478828960403,0.19219519862693868,-0.4117247020022597,0.27
29,0.5349172653904789,0.753807498825969,-4.480086739156504,2.9130996238034887,0.1996860194675615,0.17026934565851373,-0.43567670761913807,0.28
30,0.4898345404690576,0.7853268829969298,-4.5338332646106485,3.419234685714168,0.1669732423917211,0.16292752997192342,-0.44231882004278916,0.29
31,0.4443164715687828,0.8226962944463119,-4.566029499306598,4.095250343721669,0.1396377102560237,0.17088192490896284,-0.4619722700171811,0.3
32,0.3986102792307394,0.8679786611655328,-4.56972669904618,5.020868714511351,0.12225798062384172,0.1496998046184702,-0.4561550690453456,0.31
33,0.3530523148518609,0.924252660722227,-4.533566919543157,6.324262107806191,0.10459563745182836,0.14792961669964147,-0.4685568808736406,0.32
34,0.3081286968792357,0.9962504603660746,-4.4380125673295385,8.215981939920812,0.1015390569972067,0.13934230691342572,-0.4821751291625139,0.33
35,0.2645899248007976,1.091429249604145,-4.247857666809637,11.042147924763906,0.06096134587820578,0.11777614492055682,-0.4952086188494689,0.34
36,0.2236717249468222,1.2216137042332442,-3.897782384815613,15.336080028877552,0.027004208216879006,0.11199863535573133,-0.48469903958461263,0.35
37,0.1875041633810608,1.404574683740349,-3.269718388959266,21.694878368826323,0.031224705986702884,0.09157377192615378,-0.4688617052877258,0.36
38,0.1597038892402862,1.6609668763763563,-2.1896219072280654,29.786201257732877,-0.018641891602336477,0.09399378046918422,-0.48521604969411625,0.37
39,0.1454184010687951,1.9933153285437923,-0.5735415464154179,35.863418305941096,-0.024243713038646465,0.06713491165458853,-0.48640969403270146,0.38
40,0.1487510847758562,2.351374364290224,1.2377901711273838,34.28380005706546,-0.07056259876392687,0.060373480556946205,-0.49001816389757524,0.39
41,0.1686894219115453,2.658922702582873,2.6716193233232004,26.701783706796807,-0.07170771931416385,0.03152781958922876,-0.49130715191321284,0.4
42,0.2002290072054992,2.886396084363756,3.564577513598736,19.00948256123547,-0.0993823762845581,0.03661812603523573,-0.48602236178496155,0.41
43,0.2386212257326186,3.047133424716975,4.069597336507595,13.44798922551411,-0.13535906523083574,0.010813434491345907,-0.4833360626555396,0.42
44,0.2808312700598199,3.1621272121799886,4.347105656626872,9.773136747081,-0.13327186163295637,0.0014642749899816333,-0.47338077900688424,0.43
45,0.3251113601610771,3.247061991750166,4.493933026763868,7.353549889387059,-0.14927669868592014,-0.016297223394189188,-0.46703639835274474,0.44
46,0.3704398908120071,3.3120061476455147,4.562218908154756,5.721546874367959,-0.18233489139755737,-0.02498758440062227,-0.4536199011450475,0.45
47,0.4161847349828242,3.3632750541932226,4.580109403148923,4.586403421218758,-0.1754515507773987,-0.028048040270231035,-0.46310666350354046,0.46
48,0.4619273847349326,3.404895926853972,4.563406112548795,3.7727232934758,-0.19999858069925253,-0.06545307409289573,-0.4359783024411213,0.47
49,0.507371937561772,3.439510376813199,4.521435804442253,3.1733809716560413,-0.2206948440820976,-0.08013079223844521,-0.4303292235917031,0.48
50,0.552296597205954,3.4689042988478818,4.46000027277931,2.721253404249309,-0.2578456534399972,-0.09429613068680703,-0.43795967742110403,0.49
51,0.5965267858952882,3.49432033271566,4.382902427199522,2.373053209514452,-0.2722728551399151,-0.1121105286205629,-0.41508983934251864,0.5
52,0.6399196210593533,3.516646146529436,4.292765968024837,2.100063439542068,-0.27319481983216864,-0.10502178549492733,-0.4128968805705326,0.51
53,0.6823546003405468,3.53653098447924,4.191492582079459,1.8827231102193291,-0.2757267563371003,-0.09132294641065306,-0.382055237404015,0.52
54,0.7237278051683067,3.5544598218323173,4.080526035852556,1.7073820321318436,-0.2989396310582023,-0.13926632441205797,-0.39053884851719234,0.53
55,0.7639481662453458,3.570801804663484,3.9610095605134985,1.564303615150991,-0.3085624217869911,-0.14568516584804417,-0.34996836212112975,0.54
56,0.8029349735030064,3.585842674883505,3.833882239571278,1.446403634677672,-0.3339063149367792,-0.17172054493017894,-0.35166767382475644,0.55
57,0.8406161566882111,3.599806967475528,3.699939455150751,1.348434183497489,-0.33862681008983675,-0.1594593923312712,-0.31359152762901926,0.56
58,0.876927053929154,3.612873520224224,3.559871588496265,1.266443640958348,-0.33547164552009884,-0.1699189209079976,-0.3098511517563872,0.5700000000000001
59,0.9118094954536848,3.625186514691631,3.414289264775708,1.197411813879488,-0.33791164602757917,-0.16821460038843725,-0.30699207776611254,0.58
60,0.9452110945864184,3.636863470870432,3.263740118030223,1.1389986993048469,-0.35936346255514395,-0.1868547818993132,-0.29797209958285065,0.59
61,0.9770846775801832,3.648001126902993,3.108720136712334,1.0893684547439468,-0.352215260492671,-0.20289360557092373,-0.27284387162495255,0.6
62,1.0073878083323156,3.658679825805981,2.9496815127796068,1.04706409366771,-0.38873629138501264,-0.19993737832741912,-0.2903599767105791,0.61
63,1.0360823795594591,3.6689668321271016,2.787038224691614,1.0109169955898205,-0.3772448602191934,-0.22905019756429693,-0.26004134735862433,0.62
64,1.0631342520065137,3.6789188710242455,2.621170153155152,0.979980700934956,-0.38395416664195525,-0.22139950276931286,-0.23628226347415607,0.63
65,1.0885129297945186,3.688584095248552,2.45242625402488,0.9534819030531586,-0.38010255261520803,-0.22968017555455367,-0.2139923412529541,0.64
66,1.1121912643135274,3.698003626512294,2.281127135002313,0.930783790762468,-0.38316355214438225,-0.24410772001184003,-0.2261137710091331,0.65
67,1.134145181914011,3.7072127770964896,2.1075672658124462,0.9113583779363112,-0.36449865537782533,-0.2414947459214034,-0.20671732949616814,0.66
68,1.1543534325353568,3.716242029174904,1.9320169735899189,0.894765453331912,-0.3830212751612348,-0.24455427470065438,-0.2031371829510776,0.67
69,1.1727973576506534,3.725117829238545,1.7547243227650031,0.8806364632904479,-0.383593910930283,-0.25626788898130237,-0.19581220042785785,0.68
70,1.1894606767127058,3.7338632405967456,1.575916943252016,0.8686621094062176,-0.4035783080884989,-0.2614774468053279,-0.18999451078372445,0.6900000000000001
71,1.2043292917974184,3.7424984864739943,1.3958038466881837,0.858582771869485,-0.40281357037373994,-0.2653519626921882,-0.17955647370718783,0.7000000000000001
72,1.2173911104523454,3.751041408547349,1.2145772542165687,0.8501811021369667,-0.3581419896854057,-0.263644030927908,-0.17612284418789131,0.71
73,1.2286358869355487,3.759507860078888,1.0324144484174855,0.8432762958692489,-0.3844698544980834,-0.2730401998613618,-0.16689196762502292,0.72
74,1.2380550821178808,3.7679120485414113,0.8494796548082084,0.8377196788751243,-0.378041880791979,-0.2827697815427854,-0.17883187105663653,0.73
75,1.245641742351287,3.776266839430771,0.6659259536999921,0.833391328874983,-0.387838805365342,-0.2713262650978043,-0.16651562372679846,0.74
76,1.251390397598179,3.7845840305375815,0.4818972203161626,0.8301975237365238,-0.3877118773487466,-0.2757183986471246,-0.1673530761579484,0.75
77,1.255296979086673,3.792874604126975,0.2975300893614805,0.8280688590868732,-0.399376042309765,-0.2942949978112302,-0.1557050784578036,0.76
78,1.2573587567132305,3.801148963116439,0.112955939281973,0.8269589195720031,-0.37311639771223043,-0.2805245426891714,-0.15591702624754694,0.77
79,1.2575742963638887,3.809417156357177,-0.071697109024805,0.8268434219074803,-0.3854095295246574,-0.28783025405483925,-0.1471100796115438,0.78
80,1.2559434372717468,3.817689097452164,-0.2563021844991867,0.8277197767437594,-0.3635499397059566,-0.30677582085439997,-0.15839875463909386,0.79
81,1.2524672894733662,3.8259747811438607,-0.440731654733709,0.8296070421658219,-0.369447333430137,-0.30490763667608717,-0.16092877969754205,0.8
82,1.2471482513714067,3.834284501153524,-0.6248551168559499,0.8325462659107166,-0.35259499762940716,-0.29778739103963076,-0.15391400967420565,0.81
83,1.239990047355413,3.842629073443851,-0.8085373960144171,0.8366012374873131,-0.3400606482924713,-0.2938010104095814,-0.17040861787850956,0.8200000000000001
84,1.2309977853774874,3.851020069211987,-0.9916365569481564,0.841859696670946,-0.3451425833894687,-0.29436993303237147,-0.17896859167625437,0.8300000000000001
85,1.2201780343254942,3.859470062520333,-1.1740019339568517,0.8484350728113912,-0.3654669201849833,-0.2992266232502845,-0.18479338831435208,0.84
86,1.2075389209849716,3.867992898372864,-1.3554721841953126,0.8564688618394255,-0.3587358428744636,-0.3020597909107492,-0.18751738012637004,0.85
87,1.193090246335181,3.876603988301067,-1.5358733684107866,0.8661337871154131,-0.35519484245680766,-0.31731536199952654,-0.17722104103427133,0.86
88,1.176843620890244,3.8853206422187214,-1.7150170617577638,0.8776379394704804,-0.3347928497427615,-0.3248639122542403,-0.19406935101062428,0.87
89,1.1588126187814185,3.8941624475584,-1.8926984947876595,0.8912301552806288,-0.34954988367176093,-0.30113914304253503,-0.19778840629709016,0.88
90,1.1390129502943964,3.903151709686022,-2.068694720594146,0.9072069752794232,-0.31394493414376756,-0.32424581015317777,-0.20303611898821822,0.89
91,1.1174626526452542,3.912313971547072,-2.242762797659426,0.9259216397412462,-0.31291326676590503,-0.3164063610520738,-0.21641289411898812,0.9
92,1.0941822989283754,3.921678635778081,-2.414637968143297,0.9477957301954486,-0.32321017884365116,-0.3141541257642638,-0.22670485699246487,0.91
93,1.0691952254401127,3.9312797196206457,-2.584031796677184,0.9733342822995144,-0.2946613605312099,-0.3257738541955972,-0.2507484565505992,0.92
94,1.0425277780319122,3.941156782627204,-2.7506302129678164,1.0031454960723896,-0.3083138502231902,-0.3039769923101939,-0.24214782714936162,0.93
95,1.0142095788621872,3.951356080407357,-2.914091369411071,1.037966599163167,-0.29800936535241934,-0.29585085052186827,-0.2545958894527824,0.94
96,0.9842738160233732,3.9619320160948783,-3.0740431775226105,1.0786980383513087,-0.2848885462647367,-0.29004752018129437,-0.27497726640934683,0.95
97,0.9527575602073034,3.972948987159833,-3.230080316692025,1.126449080141984,-0.2800984982295355,-0.3128985983650196,-0.3052224239930358,0.96
98,0.919702115121925,3.984483762198164,-3.3817604035924065,1.182599244103186,-0.25031589464196424,-0.30742039965664686,-0.3071008130426144,0.97
99,0.8851534122215445,3.99662857587277,-3.5285988513376365,1.2488820136412166,-0.26899456438913566,-0.2803961964482597,-0.32844510779449865,0.98
100,0.8491624661442838,4.009495208817113,-3.6700617027548543,1.3275003602758697,-0.24038938267503782,-0.283018877591581,-0.31956405690368594,0.99
101,0.8117859161564425,4.023220436686138,-3.8055553393554034,1.4212884285030918,-0.2239686855762688,-0.29297832751578806,-0.3427739742158472,1.0
102,0.7730866926691792,4.037973410789753,-3.934411356735841,1.5339413558971586,-0.21583165959796244,-0.25758712756951485,-0.3771356763285666,1.01
103,0.7331348695053648,4.053965808530051,-4.055863900353607,1.6703475387755482,-0.21893976837304835,-0.26334155735082815,-0.3617444337352985,1.02
104,0.692008797178186,4.071466027171163,-4.169015088779545,1.8370780306593772,-0.1859161347147172,-0.25457603825485403,-0.3769028079324704,1.03
105,0.6497966690268244,4.090819396456279,-4.272781289022145,2.043122183539713,-0.15414247715953383,-0.24486751372937607,-0.394790070055958,1.04
106,0.6065987670059476,4.112477543761598,-4.365807948991676,2.30101816821649,-0.15447620729279002,-0.23328909987590468,-0.42366839378491256,1.05
107,0.562530797833317,4.137042002749561,-4.446331467523184,2.6286324227823155,-0.1533189358526109,-0.23754358263500938,-0.4156213217859912,1.06
108,0.517729022107044,4.1653305467779,-4.511949196463879,3.05203307084568,-0.13315786686587194,-0.20780103928886082,-0.4322493095025155,1.07
109,0.4723584167958915,4.198480743728606,-4.559224737433739,3.6102551368425577,-0.11418735941925313,-0.2038504776519706,-0.44350896055092875,1.08
110,0.4266261386951416,4.23811612460263,-4.58298707961151,4.363413270675243,-0.08416390400018973,-0.1917013456511213,-0.46960299663164246,1.09
111,0.3808045920120417,4.286620307259217,-4.57503870520157,5.406825614332358,-0.06786739304769432,-0.18316783189986388,-0.46055319267789796,1.1
112,0.3352725768564861,4.347600375014509,-4.521680973678189,6.89584265660417,-0.048778584914856614,-0.1541525094251466,-0.48919905762831695,1.11
113,0.2905917442576131,4.426679763852422,-4.398813170039742,9.088330469926692,-0.041619499100553965,-0.13781552492143895,-0.472482317159494,1.12
114,0.2476536405293244,4.532821306705282,-4.1621139922971615,12.40722109007551,-0.02395706222038631,-0.11957184724087995,-0.482412413299793,1.13
115,0.2079648493781073,4.680224926584358,-3.7285631491544886,17.47299768968949,-0.005316572018706966,-0.10196215940519586,-0.4827971285578337,1.14
116,0.174156971066465,4.889314183877713,-2.952426340338495,24.784874645530355,0.02123105311605509,-0.09625751005418712,-0.4814693199425764,1.15
117,0.1505747567768092,5.178900608788133,-1.6537344845717672,33.050422591704795,0.03608948688765013,-0.07213533623602802,-0.4954751910902581,1.16
118,0.1426143212810155,5.534681837343239,0.1294068765115235,36.80976725181442,0.058154468719045616,-0.05326629057760946,-0.4845259042894396,1.17
119,0.1528501312429446,5.88540087308932,1.873856742216643,32.07152951548893,0.061831098790369333,-0.03269716802131495,-0.510039935486851,1.18
120,0.1781488398878797,6.164698812516991,3.10095877637685,23.658828904351637,0.0899355571708586,-0.011930122813488302,-0.5036318011360309,1.19
121,0.2130658983382462,6.364404371528037,3.820664324363809,16.599713137351696,0.10678272135500634,-0.013067955659705857,-0.4922530040353711,1.2
122,0.2534419089010323,6.504932022522459,4.218710481394736,11.795646460132042,0.11059708225618375,0.027140491406340905,-0.4901468406598474,1.21
123,0.2968064444226146,6.6062755039981385,4.433752330924525,8.663348147176817,0.13384946086841448,0.045678206798291564,-0.4709281641383298,1.22
124,0.3417517202876359,6.681976805534672,4.542932605257003,6.59391142862952,0.14295219461860453,0.07036941198291229,-0.47310086118285105,1.23
125,0.3874428529559956,6.740514716366974,4.58715554204694,5.185838130618682,0.1784322632004585,0.08890363234307902,-0.47075927032444126,1.24
126,0.4333511331033122,6.787199818453244,4.588655239878305,4.196785496534764,0.18207438585025873,0.09744931650722428,-0.44948196074986857,1.25
127,0.4791176564050512,6.82544101680709,4.560099781326904,3.4811330252999317,0.19957623253685758,0.13481198426314223,-0.4565332232534121,1.26
128,0.5244825819062725,6.857494753999659,4.509099150463846,2.94950362711922,0.20170745779521806,0.14054724416929967,-0.4279118679827064,1.27
129,0.5692470494397465,6.88490100648123,4.440476719788483,2.545443870429406,0.21155208497537134,0.14070843794097884,-0.436082062488176,1.28
130,0.6132518029263274,6.908740997603629,4.357455524255471,2.2322234239580947,0.2121554636832858,0.16513171504446195,-0.41171210807203107,1.29
131,0.6563646916940311,6.929793523305401,4.262302676422721,1.9852613659666043,0.24161285396773666,0.18018759293149764,-0.39366131391479664,1.3
132,0.6984730775088158,6.948632503114428,4.156692872426907,1.7876752243383396,0.26162313064651244,0.19929416314094947,-0.3971424789830873,1.31
133,0.7394790524538,6.965689568465906,4.041920551967867,1.6275935408240323,0.2697790685788313,0.22549722459125646,-0.36439624033653534,1.32
134,0.7792963202982486,6.981295279080837,3.919027496626741,1.4964888381979675,0.26099855274717276,0.19929714421896422,-0.3609891119535093,1.33
135,0.8178480905398537,6.995706923979904,3.78888159495376,1.3881166245726766,0.27554207968851263,0.23956729748667996,-0.3423052846491314,1.34
136,0.8550656041836484,7.0091276885919145,3.652226572139532,1.2978237449296004,0.28199458234542313,0.24613543628612827,-0.3276103455647855,1.35
137,0.8908870620890437,7.021720135152455,3.5097140164416483,1.2220874379564957,0.28292704313823114,0.2662137268059078,-0.3244941751979047,1.36
