,theta,phi,dtheta,dphi,position_x,position_y,position_z,timestep
0,1.0471975511965976,0.1745329251994329,0.0,0.4363323129985824,0.924370022158942,0.2619562881119788,-0.3155462592218766,0.0
1,1.0467811114724348,0.1788969340292314,-0.0841256342161718,0.4365422785213431,0.9398634043260866,0.11930392453586704,-0.6027301670793841,0.0
2,1.045523593155341,0.1832651478200274,-0.1682079916510011,0.4371781422123188,0.7894942633911446,0.28856191758036875,-0.464901667224034,0.01
3,1.0434256460496576,0.1876418485122862,-0.2522031817512429,0.4382451380442434,0.920571790521924,0.1169574419322363,-0.591525283206171,0.02
4,1.040488360474085,0.1920313880373371,-0.3360669590764422,0.4397520807651735,0.7972482321279597,0.3128640843273014,-0.3902214925759144,0.03
5,1.0367132716866945,0.1964382246396847,-0.4197545465536188,0.4417114778170978,1.0007531566972767,0.2692642956892476,-0.45115178183186877,0.04
6,1.0321023660690185,0.2008669605583037,-0.5032204605194103,0.4441396903083487,1.0400957835723503,0.06622575419872134,-0.5823975480968099,0.05
7,1.0266580890485573,0.2053223815776545,-0.5864183381112483,0.4470571473578869,0.8123257712719388,0.20302521456723757,-0.4168760230585851,0.06
8,1.02038335473355,0.2098094990096119,-0.669300767533186,0.4504886196314235,0.7556839507318642,0.05445230742323928,-0.52088164682314,0.07
9,1.013281557228889,0.2143335947340119,-0.7518191216716387,0.4544635596100717,0.809670994908054,0.26152968039723595,-0.5601530634310655,0.08
10,1.005356583597577,0.2189002700106043,-0.8339233954676728,0.4590165181443551,0.6669189855146429,0.13693414393858833,-0.5237473386944177,0.09
11,0.9966128284285358,0.2235154988822212,-0.9155620473603894,0.4641876492395164,0.7905013205080771,0.21593738724397607,-0.6492742792883813,0.1
12,0.9870552099689588,0.2281856871222458,-0.9966818449937894,0.4700233179044453,0.7507060165463657,0.3541541713278697,-0.5055607475827021,0.11
13,0.9766891877783052,0.232917737844629,-1.0772277152187706,0.4765768294189382,0.9116539721132698,0.24938412889443443,-0.6085948375228496,0.12
14,0.9655207818616286,0.2377191250989692,-1.1571425982116987,0.4839093027156756,0.9925836830736443,0.19946006284540535,-0.7834411448643056,0.13
15,0.9535565932430744,0.2425979770258555,-1.2363673052572706,0.492090715971681,0.7928332470205908,0.23111970363649978,-0.5514779030882752,0.14
16,0.9408038259465632,0.2475631704608227,-1.314840379388027,0.5012011592691555,0.8029380524616391,0.2853524879054689,-0.7501113577144868,0.15
17,0.9272703103609322,0.2526244392644527,-1.3924979576122638,0.5113323377254015,0.7367921144565174,-0.014031316757230128,-0.5720887103715906,0.16
18,0.9129645279823289,0.2577924991416922,-1.4692736328652298,0.5225893793465901,0.9895035532856004,0.05378531151324062,-0.6939354290513099,0.17
19,0.8978956375489368,0.2630791923218757,-1.545098313044417,0.535093015751978,0.8984612605231093,0.1583991025038198,-0.5425764429653747,0.18
20,0.8820735026143016,0.2684976562371856,-1.6199000734836049,0.5489822218140257,0.9078348088144352,0.11589745667214749,-0.5694847593968749,0.19
21,0.8655087206481643,0.274062521307578,-1.6936039979083308,0.5644174234801472,0.7364461919422235,0.3588749597711206,-0.6568295009389419,0.2
22,0.8482126538113807,0.2797901441761922,-1.7661320011970632,0.5815844133782354,0.5162391555490929,0.15489458872417058,-0.6581579467854825,0.21
23,0.8301974616289791,0.2856988843236488,-1.837402625009272,0.600699153730924,0.7782293537607871,0.3474299824838314,-0.7735770987714153,0.22
24,0.8114761358888963,0.2918094340343538,-1.907330794342035,0.6220136990419964,0.8383513519839889,0.09305299842807396,-0.6189450411901923,0.23
25,0.7920625382321964,0.2981452143454742,-1.975827519071368,0.6458235417748913,0.5875654292232856,0.09581441127047405,-0.751381550503122,0.24
26,0.7719714410853269,0.3047328530895054,-2.0427995191414534,0.6724767796061911,0.7891540165875002,0.22554849978085154,-0.7029497794594025,0.25
27,0.7512185728327363,0.3116027657353596,-2.1081487447372296,0.7023856324955162,0.7947100377626857,0.21019615277495007,-0.763396670879426,0.26
28,0.7298206684618925,0.3187898658485468,-2.171771752720187,0.7360410157386376,0.40800518831543475,0.08915192155107537,-0.7702920060592787,0.27
29,0.707795527365126,0.3263344402052234,-2.233558886660826,0.7740311217265663,0.7072678112678434,0.22234222184845565,-0.8551042201678279,0.28
30,0.6851620806006352,0.3342832347327831,-2.2933931882369563,0.8170653083368942,0.5921014070462232,0.16409306801030032,-0.6698324568616443,0.29
31,0.6619404707665584,0.3426908127042258,-2.3511489399878043,0.8660050805095493,0.631117549910203,0.2750026969476574,-0.7495955460619077,0.3
32,0.6381521488276148,0.3516212677302496,-2.4066896994592657,0.9219046512320256,0.639563932136847,0.3928272719614285,-0.8895937363559343,0.31
33,0.6138199939032446,0.3611504036574186,-2.459865626519289,0.9860645823572772,0.576626800919646,0.1559925220369603,-0.7965168822024352,0.32
34,0.5889684644064064,0.3713685353732732,-2.510509819439364,1.0601034949192183,0.5267055751408899,0.1243747366001493,-0.8874067734648832,0.33
35,0.5636237923625688,0.3823841246439955,-2.5584332458601686,1.1460550554638669,0.4049090278887574,0.15211609635733236,-0.8758246424372373,0.34
36,0.5378142377851425,0.3943285525805764,-2.6034176570155543,1.246500792672268,0.3627328608275089,0.28269684539386813,-1.001935188945191,0.35
37,0.5115704275064296,0.4073624594244111,-2.6452055662544227,1.364754430947712,0.5390899877511569,0.2921484726617203,-0.8954024715785283,0.36
38,0.484925814272288,0.4216842757835779,-2.68348588623405,1.5051214205041354,0.43103552404751966,0.1455255170745555,-0.9588398163507188,0.37
39,0.4579173095370765,0.4375418639606128,-2.7178730330212155,1.673269993489101,0.22644440595225218,0.13351217097280552,-0.9556477236931696,0.38
40,0.4305861711835329,0.4552486438739301,-2.7478760082523523,1.8767704237861669,0.2930388090373884,0.1717269459693103,-0.960502563017168,0.39
41,0.4029792721451589,0.4752062956865884,-2.77285178183752,2.125892416100441,0.26286218357094465,0.22264566336561328,-0.9065673818155194,0.4
42,0.3751509496504125,0.497937279857829,-2.791933516773517,2.4348056376640725,0.021809296223584518,0.14393131485740898,-0.9192383230235504,0.41
43,0.3471657592856392,0.524132282181369,-2.8039174864600294,2.823420586322464,0.21740125998101706,0.14955524675366963,-0.8220171951475467,0.42
44,0.3191026735192213,0.5547207620979908,-2.807080407360983,3.3202614194689235,0.05606468028388967,0.06648804662782248,-0.8957618590027162,0.43
45,0.2910616466621791,0.5909778554079218,-2.798876447630686,3.9670164632684073,0.12533122105540456,0.3388233245584973,-0.9627016848673213,0.44
46,0.2631741625327438,0.6346891563360084,-2.775420924168873,4.82580371321697,0.4121236165125161,0.1734993609875454,-0.9419568914165694,0.45
47,0.2356206632208112,0.6884076798886226,-2.730588252291929,5.990672340681447,0.17088031064215498,0.14376633861997232,-0.9127628522689502,0.46
48,0.2086601268135217,0.7558536864508579,-2.654408125641506,7.6049192371283585,0.19655258077437765,0.19145750571841808,-0.8494060879977694,0.47
49,0.1826812657411702,0.8425141386681715,-2.530223159575429,9.882865607567872,0.1209574931649442,0.17197372461874944,-1.11544863506948,0.48
50,0.158291105976828,0.956424638693658,-2.329944107616404,13.118589971491945,0.11480866859112639,0.1974388945979702,-0.9132752026726311,0.49
51,0.1364599050178291,1.1086969418728037,-2.007874104287811,17.602444435331307,0.11173430035167656,0.08929401545954124,-1.1219934906522457,0.5
52,0.1187100692728094,1.3118729121535682,-1.5006570709818337,23.211334587190407,0.11355681902666341,-0.04773459436633817,-0.9401178062690329,0.51
53,0.1071709610654216,1.5713735729710971,-0.7612213992682696,28.44491168164807,-0.02252291254541509,0.1667488196712283,-1.0184988468014793,0.52
54,0.1039901272304981,1.868655416948748,0.1482417828873116,30.203519767894853,0.05162142780624722,0.03420423801759141,-0.997192248030155,0.53
55,0.1099278666208681,2.158535193003801,1.0235259718294196,27.03729726065264,-0.16955489223566295,0.059629021525647315,-1.140356980950583,0.54
56,0.1236733077801716,2.401533459132672,1.6920020774299485,21.375175565565545,-0.14621704575756705,0.11581664283183957,-1.0786009443706404,0.55
57,0.1429518369114784,2.5878475689250537,2.134783759382979,16.01601719833582,-0.14254986116450025,0.0853370289766644,-1.084975920612889,0.56
58,0.1657818298670219,2.7266763014856124,2.411942942101387,11.928824763354692,-0.22723687289348307,0.11971961668178685,-0.9361339165958159,0.5700000000000001
59,0.1908181216328065,2.830737699162187,2.583331454790071,9.025510156930004,-0.013956878568365555,0.24475491034931518,-1.0052610656169438,0.58
60,0.2172172484379875,2.91030772535758,2.6889824321453872,6.986662217028368,-0.21137963121189324,-0.009732677983203097,-1.0040868892218602,0.59
61,0.2444513342625849,2.972601632928382,2.7529301669592683,5.537594245950199,-0.21156239874497357,-0.23450357120275414,-0.8728093063237222,0.6
62,0.2721797216131504,3.022504791763698,2.789364048990916,4.4867311696605885,-0.2293084357555205,-0.02440742878049268,-0.9406162839531073,0.61
63,0.3001729568983309,3.063329266908171,2.806805171220307,3.7077365608580166,-0.22952785150022706,-0.02194770834880144,-0.9272053468312758,0.62
64,0.3282692232436042,3.097355524028453,2.8105226545889552,3.117910273442164,-0.2893579457995983,0.061880664265414456,-0.8403913133332302,0.63
65,0.3563491563174313,3.1261859409373525,2.803883866876707,2.6625199637039936,-0.3591589799586292,-0.03450293207624774,-1.067470279444746,0.64
66,0.3843209412878979,3.1509705436658404,2.789113696392099,2.304687593109888,-0.4252234792395939,0.12107681322443108,-0.8296022375767569,0.65
67,0.4121112429038873,3.172551740829898,2.7677307792754102,2.019060843468846,-0.3209815609036507,-0.04057551540848998,-0.7765673600473334,0.66
68,0.4396595265628085,3.191558467187547,2.7408048785161787,1.7878563524852171,-0.23756809586795227,0.0146657758255677,-0.9479539788413567,0.67
69,0.4669144051552703,3.208468551448307,2.709112967922528,1.5983574167828,-0.44257663722632645,-0.04833339463477502,-0.9986441004059758,0.68
70,0.4938312294393927,3.223650841530263,2.673236426023413,1.4413051838298006,-0.437850053892338,-0.07599098531465132,-0.8645062897394151,0.6900000000000001
71,0.5203704616722764,3.237394206291204,2.633623071688197,1.309845185015806,-0.43024851818971677,-0.233255997835592,-0.9359020029019279,0.7000000000000001
72,0.5464965544679037,3.2499278698980443,2.5906276646959374,1.198824592570862,-0.5971079779421946,-0.1451103690682451,-0.7598293407536612,0.71
73,0.5721771626781862,3.261435915623061,2.5445388935832067,1.1043148975186852,-0.5097182512357428,-0.21806287729865564,-0.8116467750485536,0.72
74,0.5973825791157236,3.2720677973543,2.495597692583744,1.023282077569508,-0.6233871348124961,0.00281767101582453,-0.9131809616525179,0.73
75,0.6220853233823085,3.2819460713338,2.444009878804612,0.9533549614680232,-0.5445049930793359,-0.18302136139209146,-0.9084373466362824,0.74
76,0.646259837058522,3.2911721617000387,2.389954998315051,0.8926600716330247,-0.5617326135391406,-0.18514285029916136,-0.8769029470686901,0.75
77,0.6698822538022559,3.29983071471397,2.3335925982574808,0.8397021900026657,-0.6847866809872416,-0.0712278031549051,-0.7778624547463667,0.76
78,0.6929302228461364,3.307992925991265,2.275066724325145,0.7932768442571221,-0.6136545791258975,-0.3336820002392086,-0.5629746054826833,0.77
79,0.7153827709673003,3.3157191108195105,2.2145091779006054,0.7524053924790151,-0.49144904501184816,-0.05723884785754176,-0.8363419736063854,0.78
80,0.7372201924371955,3.3230607099545173,2.152041895857141,0.716286317981524,-0.7517216288980137,-0.25915364480288905,-0.8670385214463532,0.79
81,0.7584239594931705,3.3300618697080258,2.087778703395065,0.6842582957560834,-0.558991780795677,-0.12177727341419778,-0.6086832501510391,0.8
82,0.7789766479800257,3.3367606976829207,2.021826615016855,0.6557719063973826,-0.7954591019088868,-0.006514326778197521,-0.6821200630546163,0.81
83,0.7988618742918152,3.3431902689957886,1.9542868076730144,0.6303677715306039,-0.8223647347442988,-0.027073768115184665,-0.8515920993247155,0.8200000000000001
84,0.8180642407997762,3.349379438830961,1.8852553549567512,0.6076595064033967,-0.794578012414611,-0.13269569848477072,-0.4484069693770207,0.8300000000000001
85,0.8365692877124358,3.355353503409098,1.8148237866998755,0.5873203207800016,-0.6792683460546812,-0.07282671130915827,-0.6448801547083871,0.84
86,0.854363449866778,3.361134741379044,1.7430795209928798,0.5690724078378945,-0.5388596810158046,-0.13521642398880634,-0.6365846722052989,0.85
87,0.8714340173548474,3.366742860193096,1.6701062032603422,0.5526784817738827,-0.8335862965582836,-0.05376130411941968,-0.7931965412223998,0.86
88,0.8877690991897426,3.372195366466786,1.595983978061892,0.5379349847420919,-0.8339362105435103,0.028983607185779997,-0.7053372969976152,0.87
89,0.903357589437566,3.377507875138933,1.5207897127408212,0.5246666005781546,-0.713777199322073,-0.017018676003467292,-0.4913114629279415,0.88
90,0.918189135407992,3.38269436907006,1.4445971872108685,0.512721798902101,-0.6857594152733053,-0.28158730497428885,-0.45786509237119377,0.89
91,0.9322541076203532,3.3877674182859816,1.367477260574837,0.501969197252937,-0.8208510606102435,-0.1688797615357789,-0.5475798514207416,0.9
92,0.9455435713550772,3.392738366198872,1.2894980225693973,0.4922945769429215,-0.6107908738366636,-0.3300310266456634,-0.3559968639677311,0.91
93,0.9580492596696768,3.397617488683205,1.2107249357902394,0.4835984246216808,-0.7260728062214684,-0.17719486850827745,-0.459040961667025,0.92
94,0.969763547810032,3.402414130746686,1.1312209731001934,0.4757938991819424,-0.7639736209767501,-0.1421096802120157,-0.5724798410999841,0.93
95,0.980679428985558,3.407136824642341,1.0510467534369057,0.4688051448383321,-0.7566632084916269,-0.11865236809417966,-0.6591350312661806,0.94
96,0.990790491504346,3.4117933925606216,0.9702606783264848,0.4625658875836316,-0.932119478039615,-0.18058974369611877,-0.5847862116041816,0.95
97,1.0000908972837923,3.4163910364782075,0.8889190707089059,0.4570182649587928,-0.8152695352203359,-0.108039364347568,-0.5091953467865955,0.96
98,1.0085753617654982,3.420936417290758,0.8070763171407987,0.4521118490407754,-0.7406568659284353,-0.29155873601693716,-0.4913503761181446,0.97
99,1.0162391352717357,3.4254357249964693,0.7247850140246449,0.4478028304094571,-0.8389655182033846,-0.29567404384172724,-0.4709981003622882,0.98
100,1.023077985845607,3.4298947414068226,0.6420961181922673,0.4440533370920509,-0.8650784161319753,-0.22523502474061982,-0.5376551796552035,0.99
101,1.0290881836189936,3.4343188966266447,0.5590591019235713,0.4408308674716087,-0.9375548895493084,-0.16289202829318666,-0.5743584878810735,1.0
102,1.034266486752289,3.438713320355925,0.475722112292226,0.438107820167826,-0.7644415169234441,-0.20827732085934075,-0.5858598380961583,1.01
103,1.038610128988002,3.4430828889127967,0.3921321345856987,0.4358611071703324,-0.7692682337514689,-0.3415517321438596,-0.6087897670622608,1.02
104,1.042116808857285,3.447432268753548,0.3083351594377482,0.4340718391947555,-0.9541274773391668,-0.24186699972862993,-0.3974228325392555,1.03
105,1.04478468057435,3.451765957166664,0.2243763532294975,0.432725074471099,-0.7185165534977376,-0.2445336353930233,-0.4880457696449743,1.04
106,1.0466123466490458,3.456088320739636,0.1403002312544055,0.4318096240659072,-0.8971931094164646,-0.22285324379494376,-0.5231486293292661,1.05
107,1.0475988522424933,3.460403632136517,0.0561508330982633,0.4313179084671436,-0.8878028588483815,-0.36043499276044705,-0.5893220049827939,1.06
108,1.0477436812851186,3.464716105678709,-0.0280281003458761,0.4312458615912983,-0.7095037949594535,-0.253378446340208,-0.35515663112690143,1.07
109,1.047046754370464,3.469029932189545,-0.1121929488287465,0.4315928796624135,-0.8675948938382874,-0.28407902883173436,-0.32581496089724704,1.08
110,1.045508428432082,3.473349313543741,-0.196300034275077,0.4323618136110847,-0.7693670935700607,-0.185879137440373,-0.3440023374413982,1.09
111,1.043129498204664,3.4776784973549413,-0.2803054425109525,0.4335590047917328,-0.914880734183083,-0.2048851567413163,-0.45549056643075575,1.1
112,1.039911199464386,3.4820218122382816,-0.3641648458041239,0.4351943649594635,-0.8145684865377188,-0.17465240453499514,-0.41905393672432034,1.11
113,1.0358552140373247,3.486383704099981,-0.4478333268236512,0.4372815026243065,-0.6230529447305744,-0.20403621242811376,-0.8080147397321327,1.12
114,1.0309636765588113,3.4907687739334,-0.5312652046077739,0.4398378991529011,-0.7431655540498807,-0.26417407950238014,-0.6000535364462035,1.13
115,1.025239182960848,3.495181817641267,-0.6144138631017918,0.442885139362379,-0.8274204117150359,-0.3633736112015301,-0.46269011239269614,1.14
116,1.0186848006592435,3.4996278684587963,-0.6972315827886848,0.4464492029015731,-0.666801208387309,-0.3043609243860572,-0.4560001554878821,1.15
117,1.0113040804071884,3.50411224262397,-0.7796693758809929,0.4505608245039486,-0.7250360145335035,-0.41804073889770743,-0.44891867685292675,1.16
118,1.0031010697776035,3.5086405890322494,-0.8616768254689011,0.4552559333017018,-0.8746855883299711,-0.3041481020622392,-0.3916026703595758,1.17
119,0.9940803282331714,3.513218943726887,-0.9432019289210276,0.4605761839067258,-0.8929624321334306,-0.321136861926984,-0.4870717631450748,1.18
120,0.9842469437405572,3.517853790217723,-1.0241909457039935,0.4665695950118935,-0.8730010519679813,-0.3312596304305646,-0.5789697225191973,1.19
121,0.9736065508844902,3.5225521267966755,-1.1045882496154331,0.4732913149988076,-0.6952993758056498,-0.04932669033271009,-0.4911693350903814,1.2
122,0.9621653504385108,3.5273215422349784,-1.1843361852010728,0.4808045386534681,-0.8113758667708987,-0.2795523033558982,-0.5085839502764187,1.21
123,0.9499301303528386,3.5321703015157677,-1.2633749278348092,0.4891816048460494,-0.6926587511375678,-0.15808709932291667,-0.4792149072047008,1.22
124,0.9369082881268196,3.537107443588374,-1.3416423465621092,0.4985053122614292,-0.7515838595343699,-0.4253924926212103,-0.6425928577035369,1.23
125,0.9231078545447554,3.542142893545245,-1.4190738683160502,0.5088704994168814,-0.7261448516074325,-0.2942047674626718,-0.5454115531362368,1.24
126,0.908537518770802,3.547287592139916,-1.4956023414788164,0.5203859468617665,-0.6873170358623809,-0.3661047400071348,-0.5557936565590283,1.25
127,0.8932066548228423,3.552553646214406,-1.5711578959350854,0.5331766744099029,-0.8286961826777242,-0.327610225754975,-0.6922201234501546,1.26
128,0.8771253494788379,3.557954504424358,-1.645667795688485,0.5473867255720962,-0.7259870950621288,-0.4005157029171608,-0.48882720729501905,1.27
129,0.8603044317150862,3.563505163690623,-1.7190562787078647,0.5631825564787879,-0.6043368754073407,-0.4012358293678259,-0.5861323073660619,1.28
130,0.8427555038378682,3.5692224131344057,-1.791244376827397,0.5807571794896413,-0.7154789068084777,-0.2781372013295437,-0.545527791724074,1.29
131,0.8244909745531733,3.575125123959763,-1.8621497060924623,0.600335255109793,-0.7260388131740594,-0.2942947728990308,-1.0239991408060127,1.3
132,0.8055240943305073,3.581234595955439,-1.931686214711683,0.6221793835760394,-0.6211508696412051,-0.1784520331865794,-0.6349580590596168,1.31
133,0.78586899356554,3.5875749741656646,-1.999763871448437,0.6465979248866234,-0.7886932951062612,-0.2984285605766974,-0.6073938513473901,1.32
134,0.7655407242454523,3.5941737530587488,-2.06628827144128,0.6739547807098071,-0.5100959374201517,-0.4573550524493462,-0.945872263059034,1.33
135,0.7445553060883008,3.601062390525978,-2.1311601284757344,0.7046817143856097,-0.42981847715320787,-0.38477253721602644,-0.8054134926182628,1.34
136,0.7229297784888489,3.6082770607256736,-2.19427461175761,0.739293981864249,-0.5779673381514743,-0.22962237638785177,-0.7640648482050822,1.35
137,0.7006822600941381,3.615859583793337,-2.255520469960488,0.7784103199328444,-0.5297885686620366,-0.21282913376068882,-0.8669903993640189,1.36
