,theta,phi,dtheta,dphi,position_x,position_y,position_z,timestep
0,1.5707963267948966,0.0,0.0,0.7853981633974483,0.4959562526216626,-0.0028997713956959953,0.030997486982268074,0.0
1,1.5698218716680072,0.0078539830794542,-0.1961980048081358,0.7853989025313498,0.533863134373373,0.05674834922418984,-0.05256650947052271,0.0
2,1.566885487829006,0.0157080105734389,-0.3923834300879307,0.7854101224397907,0.5116657945054186,0.02428809502389241,0.05690840818546962,0.01
3,1.5619873723194282,0.0235623068093255,-0.5885413628967467,0.7854589308174401,0.5024861493937203,0.054979583437678246,0.0574186477893948,0.02
4,1.5551278918766993,0.0314174573004989,-0.7846523677594889,0.785590581032839,0.524845858149416,-0.06134594518512744,-0.016343361421639994,0.03
5,1.54630763947265,0.039274590361216,-0.9806902071364918,0.7858685127641143,0.5613647560803351,0.027267922667546123,0.005906459136024934,0.04
6,1.5355275137020907,0.0471355594694724,-1.176619550497321,0.7863744702764086,0.4661144220962876,0.009077637700965632,-0.048172817926760425,0.05
7,1.522788821143694,0.0550031274460312,-1.372393670623476,0.7872087601179835,0.5176848008881539,0.06465841081231985,-0.07709213195518544,0.06
8,1.508093401819768,0.062881154226872,-1.5679521277246569,0.7884907285702798,0.5326607974390739,0.016739905750808658,-0.035287418798937986,0.07
9,1.491443777864547,0.0707747909074885,-1.7632184442386274,0.7903595592173075,0.5067277449340781,0.05614904770073861,0.05051799980456145,0.08
10,1.4728433254696884,0.0786906838512087,-1.958097775667636,0.7929755137604761,0.4984064450933361,0.07798825157935085,-0.09156701574372961,0.09
11,1.452296470109596,0.0866371940160753,-2.152474585315275,0.7965217665702098,0.4501813984645296,0.011626814115850558,-0.04773938798257427,0.1
12,1.429808904958805,0.094624638324412,-2.3462103330981825,0.8012070181240536,0.5486979874628747,0.09792281012028894,-0.10249720468489462,0.11
13,1.4053878323024074,0.1026655619667204,-2.5391411904067467,0.8072691182283211,0.4628017107123161,-0.0064646192924234375,-0.010164937686727257,0.12
14,1.3790422276154164,0.1107750531329219,-2.731075793851644,0.8149799921040972,0.4103687094158654,0.04598464509421765,-0.07633032347212301,0.13
15,1.3507831258604337,0.1189711149989826,-2.9217930500642093,0.8246522486266971,0.4408556671665159,0.041303919491595995,-0.07491170644460769,0.14
16,1.3206239294439133,0.1272751141567058,-3.111040000680604,0.8366479711491124,0.5705960939234795,0.04507786481928282,-0.209615385949529,0.15
17,1.2885807372092295,0.135712330482299,-3.298529750033251,0.8513903633509459,0.4574812444720457,0.09052129498598355,-0.12067313468481258,0.16
18,1.2546726938734358,0.1443126413135892,-3.4839394461559263,0.869379169121623,0.38781439872041085,-0.00902552265539494,-0.14373299133605527,0.17
19,1.2189223594988634,0.1531113836574336,-3.6669082859076103,0.8912111424425742,0.41868422288913787,0.008688277027360441,-0.2503005164775566,0.18
20,1.181356099027579,0.1621504533356747,-3.847035483457943,0.917607365746446,0.4487662803101936,0.06508193710841086,-0.20064171761915034,0.19
21,1.142004492741041,0.1714797215520735,-4.0238780920928905,0.9494499897700204,0.39536179428013407,0.13061221758148084,-0.09928188882713088,0.2
22,1.100902769959306,0.1811588804751812,-4.196948492915773,0.9878321325073172,0.412266182927615,0.06052909250045055,-0.18206355153194873,0.21
23,1.0580912707038004,0.1912598750065646,-4.365711245427658,1.034126454099724,0.45389374898031987,0.1382180136864609,-0.15524928811132993,0.22
24,1.013615943950191,0.2018701457788988,-4.529578809213054,1.0900806913286474,0.37773540410762785,0.0867141418662483,-0.2513129284540916,0.23
25,0.967528897356485,0.2130970113407797,-4.687905350704949,1.1579528228320666,0.35704123764266094,0.17647917914119945,-0.3025515530767001,0.24
26,0.919889023392324,0.2250736765903762,-4.839977370496342,1.2407056444022366,0.31237239768724595,0.18684328911478126,-0.26662923299015323,0.25
27,0.8707627430428561,0.2379676058083983,-4.984999092610551,1.342292324418605,0.3555031135279588,0.04630339054079892,-0.3301737927160166,0.26
28,0.8202249349574725,0.2519924049551031,-5.122069202868417,1.4680845796223645,0.34489065190294915,0.007388261052861264,-0.31530513251017556,0.27
29,0.7683601627285299,0.2674250321348634,-5.250143141220166,1.6255302606431024,0.3635800167225977,0.19825086383362517,-0.2932753056411563,0.28
30,0.7152643902656368,0.2846313065415993,-5.367970815269872,1.825190652708022,0.3574112460903113,0.15818253027914814,-0.3487657153547505,0.29
31,0.6610475128590557,0.3041047160642818,-5.473991395649727,2.0824266018182493,0.3067439524141843,0.09019622125296638,-0.4145013872732399,0.3
32,0.6058372859999586,0.3265272308724272,-5.566150650819031,2.420233385676096,0.3322190356326779,0.13035293735255168,-0.44212154340916787,0.31
33,0.5497857252773117,0.3528678705091658,-5.6415727262209066,2.8741915923995904,0.24968779592369414,0.047823095268288325,-0.48989968397798533,0.32
34,0.4930800468201566,0.3845487281915729,-5.695944987390735,3.5014903884641617,0.11932525544974976,0.10621763402122118,-0.3916499422624408,0.33
35,0.4359623537068788,0.4237371261257263,-5.722304668324339,4.39816968704488,0.1924399503920625,0.03436773084168384,-0.4166832458317347,0.34
36,0.3787671504398703,0.4738855778098917,-5.7084957838591714,5.733774619177276,0.10357792593380724,0.07431169042999183,-0.561215331665691,0.35
37,0.321997692546712,0.5407836434129554,-5.631452732177097,7.824429894074575,0.21302532678767974,0.07059803683371847,-0.4831175640976979,0.36
38,0.2664934021191274,0.6347085022479838,-5.443357136995087,11.290854678699604,0.041866973579634065,-0.007632066250580369,-0.41984757357645924,0.37
39,0.2138260160292143,0.7748861409495532,-5.036108775929389,17.373578807697417,0.1328384229671792,0.057134661737860415,-0.3808944759484231,0.38
40,0.1672768075454183,0.9974284309464536,-4.154505206898633,28.18696871337797,0.052239362654365865,0.0017250050592882427,-0.4624818108667961,0.39
41,0.1338981572536763,1.3555056722915448,-2.2992697847282697,43.80089102704208,0.059006515495035355,0.053816127989496206,-0.48940667000010446,0.4
42,0.1250716338930013,1.8425332064415887,0.6565606651105794,50.15397805346204,-0.10122195256421485,0.07305549322078216,-0.4743357462903137,0.41
43,0.1454944624384644,2.2886665303820704,3.2474055212400965,37.11174666939332,-0.015659400987883168,-0.002658046404532044,-0.4729092536694064,0.42
44,0.1856877127999811,2.584431262307429,4.627272702271406,22.858857983829147,-0.07667743496845689,0.01065617211900579,-0.5073724449605836,0.43
45,0.2355154228250624,2.766305516129534,5.260817429368638,14.293682068820337,-0.14605297749199492,0.0420128230787473,-0.4732693098018979,0.44
46,0.2897603253657194,2.88330488797324,5.552854675195586,9.525390636550313,-0.21841972946416205,-0.06841094196363887,-0.49740969684967196,0.45
47,0.3460295784672976,2.963628184232874,5.683102146857687,6.755897896925871,-0.2582387193236469,0.053905749094729255,-0.48772850613634955,0.46
48,0.4031349658036928,3.0220593767426074,5.727633064300737,5.047388421043324,-0.17882498154769289,0.021854408429086144,-0.4704214104205452,0.47
49,0.4604124834230046,3.0666288591910984,5.721088867947548,3.933509778255721,-0.2144258827367948,0.01881293676560397,-0.4863994721496063,0.48
50,0.5174464618579758,3.1019578438741746,5.680748684561005,3.1727775335085,-0.27813528864521253,0.009690661022253771,-0.4017370167276756,0.49
51,0.573950074238778,3.130858356896802,5.616022956852229,2.632980728687388,-0.28589861805265965,-0.013498570137118842,-0.41453716785933736,0.5
52,0.6297093353835396,3.1551272838006104,5.5324755986430185,2.237734934126669,-0.2508652984390519,0.03796940135830949,-0.3255578307830219,0.51
53,0.6845548909442113,3.175961835996989,5.433660868045717,1.9407445182400935,-0.23243802702236782,-0.077183223600637,-0.4347372020564856,0.52
54,0.738346884501084,3.19418860349431,5.32202056598841,1.712756536435619,-0.3705597114605345,0.024781577283766374,-0.3844441963156172,0.53
55,0.7909663806476287,3.2103959684557584,5.199348081012448,1.5346075206023142,-0.4409152940890217,-0.08748758941951028,-0.40400632840800543,0.54
56,0.8423102540158267,3.2250139259123816,5.067040105320024,1.3933435863776735,-0.337238820607685,-0.02474616648140044,-0.3588998945519314,0.55
57,0.892287992706851,3.238363999097621,4.926238598071435,1.2799648022030672,-0.31672449731529095,0.008268310153336698,-0.28376865564485965,0.56
58,0.9408195974228653,3.2506914732394363,4.77791340429885,1.1880652199721704,-0.45625851001432527,-0.06752839572362203,-0.29875542973345404,0.5700000000000001
59,0.9878341258629402,3.2621868071197597,4.622911560571969,1.1129859963356683,-0.3308400748814314,-0.08195564470030879,-0.27813580744039706,0.58
60,1.0332686259175112,3.273000214166556,4.461987327163043,1.0512726509487882,-0.4219164404807655,-0.029285708895147894,-0.1757289629776831,0.59
61,1.0770673076459856,3.283251812996031,4.295820811046384,1.0003182021184271,-0.4174769715952949,-0.13164522023345743,-0.2819423105094453,0.6
62,1.1191808645548624,3.293038833039519,4.125029730456113,0.9581230702052572,-0.39934091189611676,-0.09056233534574964,-0.24797642471041412,0.61
63,1.1595658901702266,3.302440819417068,3.950177026833471,0.923130178120124,-0.579112287733996,-0.060716714329675424,-0.26191347149312594,0.62
64,1.1981843572109951,3.3115234515481475,3.771775968175613,0.8941095823469423,-0.3865091540517229,-0.08221281313535005,-0.19078479625141456,0.63
65,1.2350031397172796,3.320341384191731,3.5902937583029946,0.8700764084665538,-0.4174913513956616,-0.10332665549977688,-0.13680380091119554,0.64
66,1.2699935665770434,3.32894038819352,3.40615428354693,0.8502316107026654,-0.4534367261903956,-0.09269289995075888,-0.13872722257242262,0.65
67,1.3031309999341107,3.337358982554236,3.2197403901240147,0.8339186521949369,-0.5324232858326694,-0.13718325202444887,-0.11828566836788751,0.66
68,1.334394435087915,3.3456296925295352,3.031395934663506,0.8205914764565632,-0.4670784215462383,-0.16227269496035862,-0.14647246606812436,0.67
69,1.3637661204047196,3.3537800300112672,2.8414277537230803,0.8097906131824529,-0.5021304837478544,-0.1791312725166549,-0.15444842846888726,0.68
70,1.3912311968864048,3.361833266020177,2.6501076358462905,0.8011252318213612,-0.36282508531341134,-0.019516657071523696,-0.1085242576679201,0.6900000000000001
71,1.416777357664634,3.369809046710813,2.457674339660477,0.7942596053814329,-0.3558229545712246,-0.056960553793045536,-0.04470342572745167,0.7000000000000001
72,1.4403945279871009,3.3777238912398198,2.264335676089438,0.7889028870626128,-0.5325057581319195,-0.07436205414141636,-0.10321925355026937,0.71
73,1.462074566358894,3.385591600467928,2.070270657083581,0.7848014043427495,-0.5491249256133536,-0.036190150092341486,-0.11167161783332383,0.72
74,1.481810987476278,3.393423598615452,1.8756317041523336,0.7817328846077174,-0.43186764310742237,-0.15315737872799035,-0.02767387604410752,0.73
75,1.499598707496692,3.4012292249032674,1.680546905276207,0.7795021730838315,-0.5099224538703567,-0.09644255882531998,-0.04171215931897699,0.74
76,1.515433812063843,3.409015988363378,1.4851223070181516,0.7779381075248561,-0.46873920499622207,-0.17690733136177045,-0.07973181553525965,0.75
77,1.5293133473745493,3.4167897960360984,1.2894442288330532,0.7768912882558741,-0.480241014876145,-0.19804883672249768,-0.008747020046499058,0.76
78,1.5412351344501871,3.4245551624384167,1.0935815879781683,0.7762325360371217,-0.3953225515356523,-0.1095513253392874,-0.012491792132316663,0.77
79,1.5511976066697364,3.432315406320894,0.8975882255486971,0.7758518702576467,-0.40904461134297593,-0.13227587981402394,-0.012083101068500787,0.78
80,1.5591996705387394,3.440072839214818,0.7015052266350321,0.7756578707818667,-0.510412264858712,-0.11289734100161536,0.06415097408371813,0.79
81,1.5652405896112165,3.447828949031753,0.5053632301538176,0.7755773116045919,-0.4323013961166033,-0.2131703397870783,-0.04340030687268496,0.8
82,1.5693198914493427,3.4555845809666,0.3091847263462084,0.7755549756149777,-0.5104764709541298,-0.1453077056121971,-0.000901620837552613,0.81
83,1.571437297496767,3.4633401171439604,0.1129863421164184,0.7755535788056149,-0.5035847436148069,-0.1876708472444737,0.05231320479399641,0.8200000000000001
84,1.5715926757524623,3.471095655820906,-0.0832188838069401,0.775553750225236,-0.43426002483052745,-0.09723471841941324,-0.007596900338401821,0.8300000000000001
85,1.5697860161590358,3.4788511905092743,-0.2794192325443856,0.7755540314855786,-0.43118119863515153,-0.1753325841487865,-0.0664987236139874,0.84
86,1.566017428657473,3.486606789105194,-0.4756020393754809,0.7755708770152291,-0.5385744716059423,-0.10870936619903775,-0.036880273503065,0.85
87,1.560287163904404,3.494362773011683,-0.671751426166496,0.7756386536235892,-0.4339053819204733,-0.13989307993834965,0.027326914636046792,0.86
88,1.5525956566923955,3.502119896312065,-0.8678460276247723,0.7758096553091153,-0.47400511097397996,-0.14707191536750133,-0.04618151968436858,0.87
89,1.5429435921533947,3.5098795252976456,-1.0638567078557744,0.7761541666223335,-0.4564063371014242,-0.1925933521608125,0.02447952175157537,0.88
90,1.5313319948547024,3.517643819072705,-1.2597442649766648,0.7767606253692249,-0.3645814870717767,-0.21908398232217074,0.019111683139545733,0.89
91,1.5177623409110663,3.5254159125560407,-1.4554571232786186,0.777735953294058,-0.35299979136921866,-0.1312799400312922,-0.026881935094026217,0.9
92,1.5022366932312805,3.533200103976757,-1.6509290145544853,0.7792061421780266,-0.5846105754997899,-0.26528867558431934,-0.0001903244695833431,0.91
93,1.4847578599897302,3.5410020499372306,-1.846076652615518,0.7813172034893969,-0.45122323788310703,-0.2560684445211676,-0.09886685740945947,0.92
94,1.4653295763605152,3.5488289723134083,-2.040797407571013,0.7842366137993926,-0.5202731021795608,-0.2189636298457795,-0.08116184056271142,0.93
95,1.4439567094733896,3.556689882726109,-2.234966988950152,0.7881554177945981,-0.39273653084165844,-0.19601099205260725,-0.06945370349340448,0.94
96,1.4206454864487157,3.56459583211655,-2.428437148952304,0.7932911889416632,-0.5413316858719174,-0.19960386513897332,-0.08273734264622813,0.95
97,1.3954037452472214,3.572560195200712,-2.6210334186739126,0.7998920990184565,-0.4576766496682699,-0.22057685278420272,-0.12567320105828814,0.96
98,1.3682412079385764,3.5805990024191803,-2.8125528905979973,0.8082424179231845,-0.5180931198222576,-0.14606067090970642,-0.036257978692257706,0.97
99,1.3391697758647747,3.5887313356718686,-3.002762059275596,0.8186698631165968,-0.4802344855653381,-0.19849052077276713,-0.09334972578569352,0.98
100,1.308203846072684,3.596979808967229,-3.191394728026253,0.8315553563422065,-0.48108643768861026,-0.18203321586084875,-0.19944794180591302,0.99
101,1.2753606483484352,3.6053711616124153,-3.37814998126819,0.8473459424470947,-0.45364201327469905,-0.14100902700577184,-0.23406045313285226,1.0
102,1.240660602255328,3.6139370004417226,-3.5626902077580827,0.8665719089585676,-0.4166808679976956,-0.21272723445757,-0.1913628832058797,1.01
103,1.204127693831219,3.62271473988704,-3.744639136597536,0.8898695578839891,-0.35898108619558405,-0.15414654858460586,-0.14825465262341675,1.02
104,1.1657898721529956,3.6317488060277,-3.923579810829655,0.9180116886576242,-0.4451829781406585,-0.20664598689957445,-0.13153558591711834,1.03
105,1.1256794669927952,3.641092195539384,-4.099052365791691,0.9519487569897702,-0.4368885035678183,-0.09283723736246388,-0.23836377255228314,1.04
106,1.0838336305304574,3.650808516438228,-4.270551389972018,0.9928650455276632,-0.3159513252913576,-0.26671762873273047,-0.3169354335085338,1.05
107,1.040294808949315,3.6609746905867264,-4.437522506813641,1.0422562927468837,-0.29373740939240167,-0.23126189028569666,-0.3088490409457191,1.06
108,0.995111254363887,3.6716845775662,-4.599357596436637,1.1020385357124711,-0.299400864155399,-0.208527461805293,-0.3158517712009856,1.07
109,0.94833759494423,3.683053901266456,-4.755387724689295,1.1747032179356085,-0.4242298769888239,-0.12479223011627238,-0.3193686801339445,1.08
110,0.9000354930442241,3.6952270504743625,-4.904872271678828,1.263542279665899,-0.3750128562125232,-0.1683792698770954,-0.20414201009090677,1.09
111,0.8502744405893742,3.708386627723354,-5.046981786536168,1.3729814828807012,-0.39918491338836537,-0.2388906264942723,-0.30840811446630084,1.1
112,0.7991327732191493,3.7227671160047993,-5.180770427431859,1.5090852694422714,-0.3421714775425462,-0.18150716680476411,-0.3702960443137342,1.11
113,0.7466990394024848,3.73867486507008,-5.305130869585178,1.6803409142530104,-0.2792352102657479,-0.11891488725284098,-0.35167275487611704,1.12
114,0.6930739563828828,3.756518039711329,-5.418719056629295,1.898911303812869,-0.26696836551649833,-0.1400168030876461,-0.39584098336052165,1.13
115,0.638373357822045,3.7768527514856047,-5.519825560826215,2.182700826926092,-0.22453412655438793,-0.19946461134571541,-0.42541091268305165,1.14
116,0.5827328637703547,3.800456387279087,-5.606148938444458,2.5588859822128702,-0.22123271983180487,-0.1853599232910954,-0.38548494343995726,1.15
117,0.5263156457348034,3.828448425589106,-5.674381163500684,3.070197147504273,-0.08820134727849366,-0.1753046223798793,-0.37370465719157253,1.16
118,0.4693259933808915,3.862497821046433,-5.719413651437671,3.78661205319212,-0.19953128659901154,-0.1596556779666272,-0.4404148148115707,1.17
119,0.4120343291401216,3.9051959588161935,-5.73272988167408,4.828235133588373,-0.15517926056468262,-0.10163683968202336,-0.48710485717509905,1.18
120,0.3548262419952236,3.96076306121628,-5.698930808791777,6.412456206537021,-0.016412965361963808,-0.12574945011215338,-0.544397462894957,1.19
121,0.2983056339215114,4.036460464290229,-5.587644167098238,8.95566310158276,-0.059519572881848566,-0.1157005183322856,-0.5089002529127076,1.2
122,0.2435294564434005,4.145539744253411,-5.333220485771674,13.293850402226129,-0.030145761675835936,-0.06928081371638933,-0.5150748322007008,1.21
123,0.1925823552140732,4.3132939623842255,-4.7817383745672695,21.07771104892952,0.025791956503824695,-0.06712158044669123,-0.5749222798095304,1.22
124,0.1499867188402597,4.585735898589888,-3.57412307793229,34.5380701600407,-0.019771422592831246,-0.023754245135853308,-0.4781369547962135,1.23
125,0.1250495018612264,5.011139966254074,-1.1766695124212838,49.53882232121182,-0.013452821357585642,-0.11455329245680157,-0.585544691780315,1.24
126,0.1287544050779136,5.512719104491643,1.894016584946652,46.73801063487447,0.09594176892206997,0.0009825956521744075,-0.46793327413542374,1.25
127,0.159182051814863,5.901029097461994,3.98069978744548,30.63933744432971,0.08873782142093344,-0.06011564852948542,-0.4475810112096762,1.26
128,0.2045922652897174,6.142442840867826,4.977258497788896,18.62701117698852,0.0840931707977641,0.055587177740653394,-0.5085635043257901,1.27
129,0.256900878419004,6.29194884996537,5.429289202962564,11.897437389847465,0.18132398800834892,-0.05758453121975882,-0.5213649258521587,1.28
130,0.312355656246168,6.390474912993026,5.635735598761501,8.127490313849687,0.17252156149642714,-0.06963499668093734,-0.4445808542877295,1.29
131,0.3692099505885887,6.459729993743305,5.721288990840209,5.890167232528924,0.23628947628403113,0.15369224512478802,-0.4054680973065162,1.3
132,0.4265568819372795,6.511118725982833,5.739659568516105,4.479459116625855,0.28910117464580976,0.13764994949405623,-0.4191272616453092,1.31
133,0.4838649073787906,6.55095803078943,5.71613436632217,3.5421084150105044,0.2806501948843898,0.07446859042826741,-0.41807320465892056,1.32
134,0.5407865653519403,6.582961750843087,5.663772347562488,2.8917112002592984,0.1941989670254851,0.09808413730100628,-0.454027826911573,1.33
135,0.5970732536625236,6.6094343552447725,5.5899284451931015,2.4241156852819943,0.28675436001601035,0.019994514733488886,-0.43453980236087275,1.34
136,0.652534152051449,6.63187363964506,5.499094854716201,2.078003268538299,0.366130197981276,0.12403974348409419,-0.3677399410335588,1.35
137,0.7070150045604008,6.651292233928937,5.394233077106342,1.815582903461574,0.3733280933802273,0.13887031876628056,-0.4161838814638327,1.36
