,theta,phi,dtheta,dphi,position_x,position_y,position_z,timestep
0,1.2566370614359172,0.4014257279586958,0.0,0.8377580409572782,0.4299341895621461,0.1971657283917636,-0.14832855123622402,0.0
1,1.2557205903813304,0.4098049511418078,-0.1845138252583107,0.8382578941730549,0.4385033531870032,0.19765866522077036,-0.1513475434386243,0.0
2,1.2529595045864943,0.4181942071656386,-0.3689006969375571,0.8397750268535239,0.41588704004528604,0.1868505265471166,-0.1394910795422508,0.01
3,1.2483557157687568,0.4266038138223906,-0.5530308127927768,0.8423423790845799,0.4508001682517598,0.19254746776874046,-0.15027506554577125,0.02
4,1.2419124518933893,0.4350445303875419,-0.7367703650812116,0.8460155938989782,0.4468042074760308,0.2052808302945744,-0.16433892906250083,0.03
5,1.2336343071531035,0.4435277894279257,-0.919979544557822,0.8508740580327625,0.4373990600930237,0.20933243149521816,-0.17647752804265202,0.04
6,1.2235273118332952,0.4520659414643253,-1.1025105602832672,0.8570224485478632,0.42965490475516727,0.2011578614869149,-0.16367337102889634,0.05
7,1.211599021880391,0.4606725179909227,-1.2842056801014468,0.8645928802544116,0.4250837248427213,0.21076005817749138,-0.1861237060039129,0.06
8,1.197858627945066,0.4693625194800043,-1.46489529596498,0.873747785649627,0.41724960325135513,0.20177672144272416,-0.16267012462725428,0.07
9,1.182317083636026,0.4781527365348559,-1.6443960170198948,0.8846837046063867,0.42244880525077155,0.1999206912913577,-0.1778337545016166,0.08
10,1.1649872527008611,0.487062114402276,-1.822508791169086,0.8976362191568942,0.40362218179742076,0.22042788360966273,-0.20734871460701942,0.09
11,1.1458840748596963,0.4961121737698098,-1.999017052245318,0.9128863448214972,0.4090943335084216,0.2130006726347115,-0.20759559174013312,0.1
12,1.1250247500720725,0.5053275043673116,-2.1736848842758927,0.930768791680543,0.38837538758672135,0.21016048534288395,-0.19724172955317512,0.11
13,1.1024289411426165,0.5147363526754657,-2.3462551856749743,0.9516826467681576,0.3744169069562178,0.228485356587413,-0.23233894081921927,0.12
14,1.0781189948028678,0.5243713314560586,-2.516447803215252,0.9761052203666524,0.38576406682494707,0.22758906182434693,-0.22369245338366045,0.13
15,1.0521201817975911,0.5342702874955693,-2.683957586361696,1.0046100659511097,0.3946274293348671,0.2307975616116969,-0.23389104269021993,0.14
16,1.0244609571300352,0.5444773758195202,-2.8484522841260533,1.0378905620416616,0.381499143650669,0.21085995362408422,-0.2641703364960204,0.15
17,0.9951732425935884,0.5550444050491172,-3.009570164709222,1.0767909873105213,0.3534535459740367,0.22220944361774148,-0.26606801979680067,0.16
18,0.9642927352020052,0.5660325415565023,-3.1669171762459305,1.1223478097671593,0.33564424114209773,0.23578076542827336,-0.26078779951019976,0.17
19,0.9318592473746776,0.5775144926802368,-3.32006337466772,1.1758450743421622,0.35443585737058597,0.23486500347886022,-0.31634402268028583,0.18
20,0.8979170881156952,0.5895773361550416,-3.4685382057011678,1.2388895130976063,0.31600917712498455,0.21019007088685282,-0.2988280935153169,0.19
21,0.8625154995334441,0.6023262313430383,-3.611824015765934,1.3135136450697436,0.30999852754534873,0.21350470313435374,-0.3234918603633835,0.2
22,0.8257091708138014,0.6158893492948049,-3.749346837002396,1.4023192145821255,0.30977784024086935,0.2188713518326469,-0.33231998562153753,0.21
23,0.7875588636947111,0.6304245115754183,-3.880462970182978,1.508679735316104,0.28696114320280675,0.2218486163709106,-0.3494386369553346,0.22
24,0.7481322020957484,0.6461282624500372,-4.004439046247101,1.6370311953656922,0.2802511356909119,0.21948849386250507,-0.34482425771844594,0.23
25,0.7075047080816094,0.6632484661523549,-4.120421851996856,1.7932968089990111,0.2566677491426332,0.22008441789770772,-0.3803841882950593,0.24
26,0.6657612141838737,0.6821021073169532,-4.227391836551131,1.9855198362252824,0.23765075691649287,0.18434528908580505,-0.39275249826716874,0.25
27,0.6229978615215278,0.7031009299732758,-4.324090079900917,2.224826599572812,0.2012606716137832,0.20514516353908457,-0.4101059704150132,0.26
28,0.5793250285794024,0.7267891500920953,-4.408901067717252,2.5269260070439064,0.20071745777109062,0.17525306200135796,-0.4357867656680358,0.27
29,0.5348717733974939,0.753900214084787,-4.479659807152914,2.914502536368595,0.19688029364832987,0.1758779965667041,-0.44122474618978913,0.28
30,0.4897928036236432,0.7854443720234359,-4.533325298833566,3.421134578988535,0.1489385718297609,0.1643444784249846,-0.44964279612436253,0.29
31,0.4442797999248049,0.822847416733074,-4.5654096638134805,4.097877836212951,0.16032401985418815,0.16564827001967755,-0.4441402275650771,0.3
32,0.3985804975321573,0.8681765025610808,-4.568943914676636,5.024584064059256,0.11555470768701136,0.15488708980492633,-0.46256424931829954,0.31
33,0.3530321128592981,0.9245169823323128,-4.532533011132526,6.329629159140828,0.09454072565813268,0.12618037422543527,-0.48674700788241415,0.32
34,0.3081222807889966,0.996611534632622,-4.436569603173033,8.223851188997374,0.08294657111350737,0.11650294159986638,-0.4936163645221296,0.33
35,0.2646042504095269,1.0919329811334848,-4.245716556655188,11.053603047159095,0.0439228706172943,0.11582026838731244,-0.4768847502192151,0.34
36,0.2237187651915955,1.2223238789116635,-3.8944277403306113,15.351511613208247,0.04089559632643249,0.10506546906261355,-0.5039209786982936,0.35
37,0.1876043368959641,1.405549624776515,-3.26439147421472,21.70944350274548,0.018988753736177873,0.0890943583406224,-0.48835115744744256,0.36
38,0.159887005758281,1.6621367621624838,-2.182039531640913,29.777661020353275,-0.01651749085457558,0.08652054370262824,-0.5066546137499245,0.37
39,0.1457065628089126,1.99423196494454,-0.5662841017934277,35.79721164161872,-0.04343680242156915,0.08274077813800561,-0.49959495241214896,0.38
40,0.1491193534698015,2.351393160348048,1.2398963234105822,34.18768286394801,-0.04658974381749859,0.048537690300310236,-0.510308764098374,0.39
41,0.1690739936365433,2.658001280644014,2.6684069538978807,26.64186917539149,-0.07712739350379674,0.03861178908780534,-0.5017510419854544,0.4
42,0.2005832508515525,2.884971973336542,3.559215992950136,18.99185888841273,-0.09857401744829886,0.021719259317063432,-0.4950115967302126,0.41
43,0.238928649062574,3.0455661618469225,4.064103663516522,13.452590568921462,-0.12374374886310197,0.005271173543617434,-0.4989891777255358,0.42
44,0.2810908096785581,3.1605942519179453,4.342144423854647,9.786168076044,-0.16152799589839517,-0.00963244072039519,-0.4865713007734546,0.43
45,0.3253268814127663,3.245632853509905,4.489599501925222,7.368738399715086,-0.1690542869939851,-0.027637009050217008,-0.47394577548692113,0.44
46,0.37061605879212,3.310701361562478,4.5584407775927005,5.736442818564747,-0.18143297134263486,-0.023930309510555497,-0.47499425214078766,0.45
47,0.4163257607069718,3.3620950563879144,4.576785664859443,4.600179033679045,-0.20716557050801693,-0.057403281903803435,-0.4584997737790849,0.46
48,0.4620367720636217,3.4038336549475336,4.560446451135678,3.7851958790532727,-0.22179163440425126,-0.06139367972399244,-0.4509328935769714,0.47
49,0.5074525324784743,3.438556557576813,4.518768092728042,3.1846093300724787,-0.23322975808967286,-0.08473193230405723,-0.43422571516760095,0.48
50,0.5523507066199791,3.468049597693742,4.457569057438087,2.7313746407263344,-0.24071799084030338,-0.09890957643930512,-0.4183496036216739,0.49
51,0.5965562945507228,3.493556163870476,4.38066555285592,2.3822182296387955,-0.2770883940341128,-0.09313558889794057,-0.4284201358308781,0.5
52,0.639926088532336,3.5159649144586664,4.290691388413669,2.1084129763328945,-0.27870061952943076,-0.11228323262304726,-0.3928236214768252,0.51
53,0.6823393368545567,3.53592608989842,4.189555809112648,1.8903803404765849,-0.2968589806403741,-0.10728813667781524,-0.39357682190381665,0.52
54,0.7236919294878695,3.5539255777202454,4.078708211947081,1.7144518059330147,-0.27992845524453225,-0.12557299840095879,-0.3874178460103846,0.53
55,0.763892649516842,3.570333325456693,3.959296031642642,1.570874112848619,-0.327008085963881,-0.15105739240443344,-0.3638259949296304,0.54
56,0.8028606723990084,3.585435765485544,3.8322615047633337,1.4525487098576924,-0.32039492803718383,-0.16137635755945012,-0.35230894232927323,0.55
57,0.8405238384994819,3.599458022363662,3.698402392121865,1.3542156953380915,-0.34278100238922604,-0.17088951657296286,-0.34839985124559364,0.56
58,0.8768174156108816,3.6125794356840495,3.5584108804370773,1.2719135269930306,-0.32753458864794016,-0.16908622390012357,-0.3227718279233373,0.5700000000000001
59,0.9116831781279224,3.624944614109652,3.4128989738972604,1.2026138424732238,-0.3547328909121374,-0.19378688430085772,-0.2970254252793314,0.58
60,0.945068694621972,3.636671441812644,3.262415366802533,1.1439699160810506,-0.3463586000284713,-0.1813212844517189,-0.2768803427787438,0.59
61,0.9769267550894492,3.6478569683619138,3.10745686874646,1.0941403628343394,-0.3803181649395477,-0.19589155048603693,-0.28757072928932415,0.6
62,1.007214893717212,3.658581804023248,2.948476313116404,1.0516636124653211,-0.3808509695108189,-0.22019191536634758,-0.25442952490596743,0.61
63,1.0358949785857796,3.668913443567124,2.7858881847846826,1.0153672393318625,-0.3792413651466707,-0.2182254377142784,-0.250159347474437,0.62
64,1.0629328497728203,3.678908811283337,2.6200727697535893,0.98430161248353,-0.35852966811663534,-0.2243720003018898,-0.2545747386042322,0.63
65,1.088297993877154,3.688616232888135,2.4513793539577176,0.9576907720185472,-0.3757001099080522,-0.24047970060463605,-0.25121693906323217,0.64
66,1.1119632473056555,3.698076980986903,2.280128819879284,0.93489567951927,-0.3495044929813424,-0.23948435986645142,-0.2087295975587611,0.65
67,1.1339045235282472,3.707326500102548,2.106615872118073,0.9153864743725736,-0.3862896990689477,-0.23094299942111277,-0.21003814555162764,0.66
68,1.1541005614024318,3.716395388875395,1.931111044721496,0.8987213653359742,-0.35658904776735945,-0.25536634538941083,-0.19002192373408985,0.67
69,1.1725326929178663,3.725310196924815,1.7538625903615934,0.8845304669124584,-0.3942412018128486,-0.2412713740429229,-0.1945830102163222,0.68
70,1.1891846295235902,3.734094079435141,1.5750983157589669,0.8725033602013068,-0.38826884935334993,-0.2559124458938505,-0.19783305712153385,0.6900000000000001
71,1.2040422667164663,3.7427673420554095,1.3950274035545245,0.8623794870151019,-0.39068519391145146,-0.26506078011852074,-0.19336568445696795,0.7000000000000001
72,1.2170935068848383,3.751347901014936,1.2138422444696173,0.8539407194133835,-0.3937759620667206,-0.27219672903643694,-0.17576954745136486,0.71
73,1.2283281005815665,3.7598516776558895,1.0317202926275737,0.8470056144152706,-0.38117611727546724,-0.2795004123954557,-0.1676323846056025,0.72
74,1.2377375064908671,3.768292942319225,0.848825949666615,0.8414249857140355,-0.37522892474352104,-0.2859579665070759,-0.17652865471397436,0.73
75,1.2453147703846372,3.776684619309104,0.665312478599391,0.8370785144976993,-0.3729807247601216,-0.27683554968100477,-0.1782103201714029,0.74
76,1.2510544233579046,3.785038562235051,0.4813239454559196,0.833872189491268,-0.38451514098858075,-0.29058208767694804,-0.1696987708219004,0.75
77,1.254952399603867,3.793365807203384,0.2969971850081578,0.8317364187289764,-0.37404449634949394,-0.2794817792727262,-0.1533781009614115,0.76
78,1.257005973946741,3.801676809968059,0.1124637859046358,0.8306246970533009,-0.3955308488413479,-0.3126705423993056,-0.14053430727033228,0.77
79,1.257213719301138,3.8099816721648856,-0.0721479099493292,0.8305127473185,-0.3730540889781978,-0.30281105769036637,-0.15333311756720586,0.78
80,1.2555754841737876,3.818290361080149,-0.2567107991498454,0.8313980822553283,-0.38211628889766613,-0.30636711234350955,-0.1679018252571903,0.79
81,1.2520923902691126,3.826612927004666,-0.441097005155817,0.8332999598468914,-0.35910347434998285,-0.2874380765694892,-0.14732731020123316,0.8
82,1.2467668502053946,3.834959722074488,-0.6251758687385468,0.8362597294280227,-0.3652861281612916,-0.29878354123646633,-0.17350450422135807,0.81
83,1.2396026052934286,3.843341624591458,-0.8088119459935992,0.8403415899273763,-0.3587904224907352,-0.2995986584967132,-0.15466002329456754,0.8200000000000001
84,1.2306047832750788,3.85177027315552,-0.9918630193288142,0.8456338070795237,-0.3563252682502821,-0.3208779321474037,-0.1428918514455964,0.8300000000000001
85,1.219779975865726,3.860258315545705,-1.1741781266669604,0.8522504645413695,-0.3548243374587677,-0.30624444300683007,-0.1673819285756947,0.84
86,1.2071363358939995,3.868819678193372,-1.355595613690718,0.8603338564670152,-0.34724517509713043,-0.32245466440134485,-0.18279161869640545,0.85
87,1.1926836937876069,3.877469863356033,-1.535941213125947,0.8700576685718725,-0.34247049693927983,-0.3004114700103753,-0.19674943575094042,0.86
88,1.1764336931209165,3.886226282806267,-1.7150261535382048,0.8816311442066058,-0.3387927799512599,-0.33489387457788883,-0.18902531426004687,0.87
89,1.1583999449270252,3.895108639118415,-1.8926452975283417,0.8953044958241375,-0.3349295257824873,-0.3098298889596592,-0.18124984517175702,0.88
90,1.1385982004973323,3.9041393686382864,-2.0685753050244573,0.911375906587756,-0.33139369169333727,-0.2986477185003501,-0.21287738674700768,0.89
91,1.117046542464836,3.913344164204019,-2.242572810832511,0.930200580472932,-0.31558132648899456,-0.3086674551387709,-0.2233418675476499,0.9
92,1.0937655941216775,3.922752601000326,-2.414372595666076,0.9522024546751868,-0.3180833781492063,-0.33277719056601135,-0.2319172785723567,0.91
93,1.068778747198282,3.9323988960780976,-2.5836857150024506,0.9778894038973136,-0.30163601107025423,-0.30622484919724396,-0.23593975152569224,0.92
94,1.0421124087901896,3.942322841786438,-2.750197528081483,1.0078730694763889,-0.2877389353350319,-0.32463603503117217,-0.24177096448110216,0.93
95,1.0137962688464817,3.952570966710322,-2.9135655368687354,1.0428948783568297,-0.30070162019787183,-0.3185701208323712,-0.26018255104662147,0.94
96,0.9838635907580154,3.96319799625942,-3.07341689684586,1.0838604401210412,-0.3022851495983422,-0.2881639433977385,-0.280127239115808,0.95
97,0.952351529294926,3.974268711167774,-3.2293453903618343,1.1318854212921583,-0.25104357161628027,-0.29635103187752226,-0.30017729666191273,0.96
98,0.919301482727859,3.985860339414367,-3.3809075468683583,1.1883573467176798,-0.26086732702369053,-0.2898164954724036,-0.30167616541875425,0.97
99,0.8847594898679754,3.9980656709648503,-3.5276174332505086,1.255019810454089,-0.2774793829603472,-0.2876115570039994,-0.32423243265267515,0.98
100,0.8487766886684404,4.010997163880697,-3.66893938985191,1.334088687230945,-0.23051203653002722,-0.283559382532836,-0.32593318558004913,0.99
101,0.8114098620509443,4.024792428466596,-3.8042776004745984,1.4284147727203838,-0.22171821780905082,-0.27882514749315634,-0.3597035120305531,1.0
102,0.7727221105628985,4.0396216554992925,-3.9329607665196495,1.5417149481690526,-0.22410667086109592,-0.2646007298361115,-0.35450169656311264,1.01
103,0.7327837133596562,4.055697832061884,-4.054219146776659,1.6789063614268278,-0.21806758176302365,-0.2709352904707472,-0.3716383930118376,1.02
104,0.6916732740317887,4.073291026399976,-4.16714953770757,1.8465985860643617,-0.20477611660924525,-0.2684481528629541,-0.3845478816102773,1.03
105,0.6494793051041022,4.092748729165309,-4.270660872736673,2.0538332822483323,-0.18275280376894576,-0.24274775015877045,-0.41134334610977485,1.04
106,0.60630250119489,4.1145254026518,-4.363388000517925,2.313220608699416,-0.16316786379395212,-0.2433663339213958,-0.4007571469165936,1.05
107,0.5622591168070256,4.139226356009521,-4.4435518723654015,2.6427272987389,-0.1447735304964452,-0.22889737417077372,-0.4158694655096292,1.06
108,0.5174861602729854,4.167674467630656,-4.5087267925228405,3.068562493655084,-0.12776669713215516,-0.21301908510288928,-0.4482596608341359,1.07
109,0.4721496596972546,4.201014306674536,-4.555441104578339,3.629959817658814,-0.1011916890646335,-0.2143715656380701,-0.4538725111185739,1.08
110,0.4264582957868746,4.240879108023112,-4.578468442542907,4.387309107969019,-0.10162758634535769,-0.18504282666770588,-0.43180378669831704,1.09
111,0.3806867534344241,4.289665952133196,-4.569522203439727,5.436286419596979,-0.07577194383408069,-0.1755988374391082,-0.4636676070641331,1.1
112,0.3352173538883319,4.351000154152288,-4.51475780387196,6.932612668787354,-0.05406905446441024,-0.16273591530063264,-0.47314574698984796,1.11
113,0.2906173254902842,4.430527527190749,-4.389836602297145,9.134149404275467,-0.027712088060155307,-0.12607010300400537,-0.46270075964633567,1.12
114,0.2477871046220404,4.537228629656854,-4.150078320302613,12.46188411729479,-0.019207791528070634,-0.12702561989197672,-0.47947041277023256,1.13
115,0.208246679360453,4.685275840592999,-3.712098954988237,17.52700812659619,-0.004509164987935961,-0.08702331111086928,-0.4780271691202964,1.14
116,0.1746427543105751,4.894881463931022,-2.930684056470385,24.798777819560925,-0.0012609850741070947,-0.09032005615520837,-0.4826382770270002,1.15
117,0.1513151899358115,5.184193258770942,-1.6300920202161249,32.93702428086007,0.036148559997541414,-0.0652713386664651,-0.49626995450556843,1.16
118,0.1435861792916436,5.538090179553572,0.1439357465368064,36.54768201410069,0.05132040617517238,-0.05129096784301443,-0.5080466009551202,1.17
119,0.1539176469696494,5.886070626209967,1.8727722487941016,31.834868049091007,0.06826524583969877,-0.04308789211685121,-0.48458240510618034,1.18
120,0.1791730626889185,6.163485727463077,3.090719862163459,23.5479801349569,0.07463316215016594,-0.006743244974700876,-0.48353470234211443,1.19
121,0.213985313880695,6.362440579667741,3.808313029387033,16.574742260093366,0.08599421054187721,0.00637399740694043,-0.48882482692360585,1.2
122,0.2542470174566033,6.502854916830264,4.207099999452423,11.80831845153211,0.10178753416227002,0.011113189315224283,-0.5087551440746589,1.21
123,0.2975057554181972,6.604350407770526,4.423513011879353,8.689052190658535,0.14508942879744646,0.041544997156603355,-0.49352373523192444,1.22
124,0.3423570510071222,6.680293513726435,4.53398563736975,6.622499236394382,0.15562132722715866,0.055724182184079055,-0.4800450582534705,1.23
125,0.3879649252115177,6.739091032013018,4.5792702121381845,5.213515928416339,0.15798810019922543,0.07521722213151295,-0.46560776655888275,1.24
126,0.4337987170268985,6.786026251422639,4.581609538096356,4.2223235546468185,0.16339821041763106,0.0889535996861026,-0.45804337536568507,1.25
127,0.4794977207417357,6.824499100995023,4.5537148730360295,3.5043006523564326,0.20196810667240264,0.11386354357260928,-0.45158344208084406,1.26
128,0.5248006508084695,6.856764372618013,4.50323868290205,2.9704386742708526,0.2192537256047812,0.11844455521420834,-0.44194087172336805,1.27
129,0.569507540966894,6.884363180538216,4.435038462002851,2.5643999262568653,0.23028470194318967,0.16243347479700437,-0.4266331098694271,1.28
130,0.6134583007520943,6.908378800025,4.352362972968893,2.2494702647674623,0.21779517755395597,0.16806359587922054,-0.4101710019507988,1.29
131,0.6565201514819192,6.929592229125758,4.257498323494084,2.001048238413515,0.2396258852041039,0.19295274783067884,-0.39779450681130707,1.3
132,0.6985799806830171,6.948579445178509,4.152133170260407,1.80221988417283,0.24173966060777463,0.19365451100233325,-0.3690391433074428,1.31
133,0.7395395202268281,6.965773897725905,4.037572237951299,1.6410815688815203,0.26785259550158197,0.20764512772342045,-0.3683801574576643,1.32
134,0.7793121983439993,6.981507712256458,3.914864925230067,1.5090767107205032,0.27569735374914317,0.2291596118150151,-0.3615260008710674,1.33
135,0.8178210121148997,6.996039510708588,3.784884797061167,1.399935811064296,0.28827170465551805,0.2294043280735919,-0.34566345042032376,1.34
136,0.8549970374048121,7.009573608216198,3.648379835603864,1.308984739472313,0.2876341816000974,0.24722234090208614,-0.3235960396766186,1.35
137,0.8907783455128286,7.022273524023198,3.506004841105965,1.2326833337884324,0.2781330619965577,0.2644570518015571,-0.31755604975255824,1.36
