,theta,phi,dtheta,dphi,position_x,position_y,position_z,timestep
0,1.2566370614359172,0.4014257279586958,0.0,0.8377580409572782,0.43772606957862936,0.18580369293454135,-0.15450849718747373,0.0
1,1.2557236649291337,0.40980493454575667,-0.18451403534403618,0.8382562100762987,0.4360242098624179,0.18940861595248654,-0.15494277852425917,0.0
2,1.2529656473574777,0.41819413993597815,-0.3689015452366651,0.8397715995183161,0.43402773682800677,0.19288552516093221,-0.15625331307639484,0.01
3,1.2483649139509405,0.42660366048384313,-0.5530327371850636,0.8423370888075759,0.4317313089950447,0.19622908903692102,-0.15843680585383368,0.02
4,1.2419246859911057,0.4350442530324932,-0.7367738196832211,0.8460082580445638,0.4291254244721463,0.19943194683452167,-0.16148767337909364,0.03
5,1.2336495506928609,0.4435273466740457,-0.9199850061406357,0.850864427266157,0.42619655030050096,0.2024846345128195,-0.16539792410475548,0.04
6,1.2235455309728978,0.45206528734081247,-1.1025185345987663,0.8570102014080966,0.42292728663333307,0.2053755284850966,-0.17015699374528764,0.05
7,1.2116201749226732,0.46067160072500246,-1.2842167080956035,0.864577615689995,0.41929656785055613,0.2080908092860693,-0.17575153848377184,0.06
8,1.1978826647578804,0.4693612801486797,-1.464909959862633,0.873729013000868,0.4152799032122682,0.21061444762233608,-0.18216518998081774,0.07
9,1.182343944980264,0.4781511075379643,-1.644414946275566,0.884660830341853,0.41084966002015744,0.21292821560841232,-0.18937827715748853,0.08
10,1.1650168694682768,0.48706001770097035,-1.8225326682947245,0.8976085294409051,0.40597539245232983,0.21501172627635243,-0.1973675208509233,0.09
11,1.1459163672220523,0.4961095188187147,-1.9990466185515956,0.9128529826808837,0.4006242192337218,0.21684250465815785,-0.20610570864715902,0.1
12,1.125059626542411,0.505324185647439,-2.1737209456029807,0.9307287271182765,0.39476125307046583,0.21839609385203881,-0.21556135846762306,0.11
13,1.1024662975481494,0.514732246706542,-2.3462986182480243,0.9516346375891516,0.3883500842831408,0.2196461994696764,-0.2256983808001391,0.12
14,1.0781587131667307,0.5243662931283835,-2.5164995598478797,0.9760477606640596,0.3813533202947887,0.22056487569463717,-0.23647575078631128,0.13
15,1.0521621291230223,0.5342641455088117,-2.6840187033613607,1.0045413180409122,0.3737331815445374,0.22112275583515778,-0.2478472026561184,0.14
16,1.0245049840748381,0.544469926942854,-2.8485238894481792,1.0378082659647272,0.3654521529946329,0.22128932970265675,-0.2597609601755743,0.15
17,0.9952191820139373,0.555035406814893,-3.009653488193777,1.0766923395927532,0.3564736886771975,0.2210332693694688,-0.2721595177698483,0.16
18,0.9643404005313092,0.5660217028546995,-3.1670135631990672,1.1222292995486778,0.3467629647016495,0.22032280384042355,-0.2849794877166019,0.17
19,0.9319084307830612,0.5775014615127215,-3.320174304699928,1.1757022596393518,0.33628767384739233,0.21912614190665447,-0.2981515291783937,0.18
20,0.8979675583650846,0.5895616835054045,-3.4686653197277053,1.2387167118610185,0.32501885235374045,0.21741194094126517,-0.31160037476038005,0.19
21,0.8625669993967032,0.6023074296696475,-3.6119691556244793,1.3133035032435936,0.31293172686890064,0.21514981766362778,-0.3252449696431222,0.2
22,0.825761413854717,0.6158667434821835,-3.7495121046005595,1.402062093909816,0.3000065668369586,0.21231089497617991,-0.33899873706123884,0.21
23,0.7876115300938398,0.6303972791531566,-3.880650817067791,1.5083628327257395,0.2862295250173825,0.2088683769152531,-0.3527699819047978,0.22
24,0.7481849330298335,0.6460953582961563,-4.0046524110763295,1.636637255824334,0.2715934465023879,0.20479814162275653,-0.3664624414654521,0.23
25,0.7075570978773545,0.6632085443810783,-4.120664374561675,1.7928022116023485,0.2560986247041001,0.20007934011974077,-0.3799759888228697,0.24
26,0.6658127989920476,0.6820534089960919,-4.2276681964304945,1.9848916959291958,0.23975348152796083,0.19469498663703907,-0.3932074901036664,0.25
27,0.6230481024516755,0.7030411186565545,-4.3244065425677505,2.224018293608726,0.22257514855471477,0.18863252442581546,-0.40605181193363826,0.26
28,0.5793732858299601,0.7267150660045736,-4.409266384849546,2.5258701339176945,0.20458992677035878,0.18188434941820386,-0.418402969995214,0.27
29,0.5349172653904789,0.753807498825969,-4.480086739156504,2.9130996238034887,0.18583360450459555,0.17444827290535678,-0.4301554039148732,0.28
30,0.4898345404690576,0.7853268829969298,-4.5338332646106485,3.419234685714168,0.1663516171344983,0.1663279036049755,-0.4412053580353612,0.29
31,0.44431647156878284,0.8226962944463119,-4.566029499306598,4.095250343721669,0.1461990382780639,0.1575329292089336,-0.451452342358994,0.3
32,0.39861027923073944,0.8679786611655328,-4.56972669904618,5.020868714511351,0.12544040123386435,0.14807927815031283,-0.4608006435767743,0.31
33,0.3530523148518609,0.924252660722227,-4.533566919543157,6.324262107806191,0.10414936138319529,0.1379891455690472,-0.4691608532567449,0.32
34,0.3081286968792357,0.9962504603660746,-4.4380125673295385,8.215981939920812,0.08240822104152745,0.1272908792226858,-0.4764513796511522,0.33
35,0.2645899248007976,1.091429249604145,-4.247857666809637,11.042147924763906,0.06030732206041649,0.11601876011548289,-0.4825999111139239,0.34
36,0.22367172494682225,1.2216137042332442,-3.8977823848156126,15.336080028877552,0.037944147866426456,0.10421282415936405,-0.48754479683760366,0.35000000000000003
37,0.18750416338106082,1.404574683740349,-3.269718388959266,21.694878368826323,0.015421227693358722,0.0919190634985489,-0.49123626851239244,0.36
38,0.15970388924028625,1.6609668763763563,-2.1896219072280654,29.786201257732873,-0.007160013195094557,0.07918990544195774,-0.4936372079646548,0.37
39,0.14541840106879517,1.9933153285437923,-0.5735415464154179,35.863418305941096,-0.029710108985514815,0.0660815980288993,-0.4947226817379771,0.38
40,0.1487510847758562,2.3513743642902236,1.2377901711273838,34.28380005706546,-0.052144546029384425,0.052649671262513194,-0.4944784711545475,0.39
41,0.16868942191154532,2.658922702582873,2.6716193233232004,26.701783706796807,-0.07435525496185055,0.038962836098464994,-0.49290282354914783,0.4
42,0.2002290072054992,2.886396084363756,3.564577513598736,19.00948256123547,-0.09622616666295836,0.025103935466328622,-0.49001052771696135,0.41000000000000003
43,0.23862122573261868,3.047133424716975,4.069597336507595,13.44798922551411,-0.11765472421072377,0.011146746712377828,-0.48583239487361135,0.42
44,0.28083127005981995,3.1621272121799886,4.347105656626872,9.773136747081,-0.13854800903011538,-0.002845422161475954,-0.48041269005565834,0.43
45,0.3251113601610771,3.247061991750166,4.493933026763868,7.353549889387059,-0.15881970657176367,-0.016812996986543607,-0.473807581130557,0.44
46,0.3704398908120071,3.3120061476455147,4.5622189081547555,5.7215468743679585,-0.1783907403161266,-0.030697930012984955,-0.4660840920503318,0.45
47,0.4161847349828242,3.3632750541932226,4.580109403148923,4.586403421218758,-0.19719040002439936,-0.04444407739672036,-0.45731900258197417,0.46
48,0.4619273847349326,3.4048959268539716,4.563406112548795,3.7727232934757997,-0.21515718830279698,-0.05799813809490545,-0.4475975874590468,0.47000000000000003
49,0.507371937561772,3.439510376813199,4.521435804442253,3.1733809716560413,-0.23223936336881723,-0.07131053347410492,-0.4370122262794086,0.48
50,0.552296597205954,3.4689042988478818,4.46000027277931,2.721253404249309,-0.24839522608820908,-0.08433610655321981,-0.4256609364130463,0.49
51,0.5965267858952882,3.49432033271566,4.382902427199522,2.373053209514452,-0.26359318312604085,-0.09703463803735735,-0.41364587853675094,0.5
52,0.6399196210593533,3.516646146529436,4.292765968024837,2.1000634395420676,-0.2778116082316668,-0.10937119600667584,-0.40107187861504845,0.51
53,0.6823546003405468,3.53653098447924,4.191492582079459,1.8827231102193294,-0.2910385219960866,-0.12131633626004534,-0.38804500418221216,0.52
54,0.7237278051683067,3.5544598218323173,4.0805260358525555,1.7073820321318436,-0.30327111195937695,-0.13284616853461886,-0.37467122675299563,0.53
55,0.7639481662453458,3.5708018046634837,3.9610095605134985,1.564303615150991,-0.3145151170196011,-0.14394230299862723,-0.36105519602077185,0.54
56,0.8029349735030064,3.585842674883505,3.833882239571278,1.4464036346776719,-0.3247841016046287,-0.15459169139695617,-0.34729914525651007,0.55
57,0.8406161566882111,3.5998069674755278,3.699939455150751,1.3484341834974887,-0.33409864565195274,-0.16478637750867883,-0.33350194116541226,0.56
58,0.876927053929154,3.6128735202242237,3.559871588496265,1.266443640958348,-0.3424854760558594,-0.1745231717825775,-0.3197582855873173,0.5700000000000001
59,0.9118094954536848,3.625186514691631,3.414289264775708,1.197411813879488,-0.3499765639843906,-0.18380326495012433,-0.30615807102762155,0.58
60,0.9452110945864184,3.6368634708704324,3.263740118030223,1.1389986993048469,-0.35660821050079,-0.19263179499804514,-0.2927858872269211,0.59
61,0.9770846775801831,3.648001126902993,3.108720136712334,1.0893684547439468,-0.36242014042939386,-0.20101738111468634,-0.2797206719227798,0.6
62,1.0073878083323156,3.658679825805981,2.9496815127796068,1.04706409366771,-0.3674546215696793,-0.20897163715191927,-0.26703549568012563,0.61
63,1.0360823795594591,3.6689668321271016,2.787038224691614,1.0109169955898203,-0.37175562335767653,-0.21650867583710776,-0.25479746817660404,0.62
64,1.0631342520065135,3.6789188710242455,2.621170153155152,0.979980700934956,-0.37536802605401026,-0.22364461350632242,-0.24306775159597702,0.63
65,1.0885129297945186,3.6885840952485522,2.4524262540248802,0.9534819030531586,-0.37833688862950066,-0.23039708358894792,-0.2319016657461868,0.64
66,1.1121912643135274,3.698003626512294,2.2811271350023135,0.9307837907624681,-0.38070678082193166,-0.23678476552648098,-0.22134886909756532,0.65
67,1.134145181914011,3.7072127770964904,2.1075672658124462,0.9113583779363111,-0.3825211824231187,-0.2428269343157742,-0.2114536000365607,0.66
68,1.1543534325353568,3.7162420291749036,1.9320169735899189,0.894765453331912,-0.38382195076982806,-0.2485430344782782,-0.2022549631518918,0.67
69,1.1727973576506534,3.7251178292385445,1.7547243227650031,0.8806364632904479,-0.3846488556787808,-0.25395228100844536,-0.19378724621504903,0.68
70,1.1894606767127058,3.7338632405967456,1.5759169432520161,0.8686621094062176,-0.38503917968909707,-0.259073288771198,-0.1860802545936098,0.6900000000000001
71,1.2043292917974184,3.7424984864739947,1.3958038466881837,0.858582771869485,-0.3850273804442786,-0.26392373091420007,-0.17915965106168774,0.7000000000000001
72,1.2173911104523454,3.751041408547349,1.2145772542165687,0.8501811021369667,-0.38464481133784223,-0.2685200261409596,-0.17304729027677426,0.71
73,1.2286358869355487,3.7595078600788874,1.0324144484174855,0.8432762958692489,-0.38391949613209375,-0.2728770541533284,-0.16776153851905606,0.72
74,1.2380550821178808,3.7679120485414113,0.8494796548082084,0.8377196788751243,-0.38287595310348826,-0.2770078982093438,-0.16331757059403393,0.73
75,1.2456417423512873,3.776266839430771,0.6659259536999921,0.833391328874983,-0.3815350643337056,-0.2809236135429929,-0.1597276370507695,0.74
76,1.251390397598179,3.7845840305375815,0.48189722031616267,0.8301975237365238,-0.3799139860158018,-0.28463302034237203,-0.1570012960467652,0.75
77,1.255296979086673,3.792874604126975,0.29753008936148057,0.8280688590868732,-0.3780260960436273,-0.2881425200661175,-0.15514560528729568,0.76
78,1.2573587567132305,3.8011489631164386,0.11295593928197303,0.8269589195720031,-0.3758809756660378,-0.29145593407863074,-0.15416527048171497,0.77
79,1.2575742963638887,3.8094171563571773,-0.07169710902480503,0.8268434219074803,-0.37348442258382564,-0.2945743638856392,-0.1540627476991026,0.78
80,1.2559434372717468,3.8176890974521642,-0.25630218449918674,0.8277197767437594,-0.3708384935176335,-0.2974960726364584,-0.15483829788348621,0.79
81,1.2524672894733662,3.8259747811438607,-0.440731654733709,0.8296070421658219,-0.3679415749526894,-0.3002163880111038,-0.1564899926222147,0.8
82,1.2471482513714067,3.8342845011535243,-0.6248551168559499,0.8325462659107166,-0.3647884814462229,-0.30272762711223544,-0.15901367106998712,0.81
83,1.239990047355413,3.842629073443851,-0.8085373960144171,0.8366012374873131,-0.3613705815423703,-0.3050190445164429,-0.16240284873734612,0.8200000000000001
84,1.2309977853774874,3.851020069211987,-0.9916365569481563,0.841859696670946,-0.3576759519547784,-0.30707680518811015,-0.16664857967803534,0.8300000000000001
85,1.2201780343254942,3.8594700625203324,-1.1740019339568515,0.8484350728113912,-0.35368956122645273,-0.3088839845025717,-0.17173927447516008,0.84
86,1.2075389209849716,3.8679928983728638,-1.3554721841953126,0.8564688618394255,-0.34939348453733055,-0.3104205981417856,-0.17766047734979845,0.85
87,1.1930902463351807,3.876603988301067,-1.5358733684107866,0.8661337871154131,-0.34476715167946004,-0.31166366509176147,-0.1843946067118085,0.86
88,1.176843620890244,3.8853206422187223,-1.7150170617577638,0.8776379394704804,-0.3397876304340493,-0.31258730736035917,-0.19192066454974124,0.87
89,1.1588126187814183,3.8941624475584,-1.8926984947876593,0.8912301552806288,-0.334429947640039,-0.31316289031818817,-0.2002139212168804,0.88
90,1.1390129502943964,3.903151709686022,-2.068694720594146,0.9072069752794232,-0.32866745011642384,-0.31335920771341813,-0.20924558340664423,0.89
91,1.1174626526452542,3.9123139715470723,-2.242762797659426,0.9259216397412462,-0.32247220726756803,-0.3131427153906594,-0.21898245440616268,0.9
92,1.0941822989283754,3.921678635778081,-2.4146379681432966,0.9477957301954486,-0.31581545664165844,-0.31247781752150217,-0.229386597043549,0.91
93,1.0691952254401127,3.9312797196206457,-2.5840317966771837,0.9733342822995144,-0.3086680929107819,-0.31132720869709923,-0.24041501106148452,0.92
94,1.0425277780319122,3.9411567826272043,-2.7506302129678164,1.0031454960723896,-0.3010011996865157,-0.309652274511277,-0.25201933790340586,0.93
95,1.0142095788621872,3.9513560804073564,-2.914091369411071,1.037966599163167,-0.29278662227546476,-0.30741355225113914,-0.2641456070216964,0.9400000000000001
96,0.9842738160233733,3.9619320160948783,-3.0740431775226105,1.0786980383513087,-0.2839975779242853,-0.30457125199366647,-0.2767340387306015,0.9500000000000001
97,0.9527575602073034,3.972948987159833,-3.230080316692025,1.126449080141984,-0.2746092983266062,-0.3010858367754598,-0.28971891924033916,0.96
98,0.919702115121925,3.9844837621981637,-3.3817604035924065,1.182599244103186,-0.2645996972048597,-0.2969186585666932,-0.30302856372634585,0.97
99,0.8851534122215445,3.99662857587277,-3.5285988513376365,1.2488820136412166,-0.25395005369695534,-0.292032644565662,-0.31658538300954325,0.98
100,0.8491624661442838,4.009495208817113,-3.6700617027548543,1.3275003602758697,-0.2426457001504054,-0.28639302588328963,-0.3303060685545044,0.99
101,0.8117859161564425,4.023220436686138,-3.8055553393554034,1.4212884285030918,-0.2306767008553343,-0.27996809807660233,-0.34410190894830645,1.0
102,0.7730866926691792,4.037973410789753,-3.934411356735841,1.5339413558971586,-0.21803850635475341,-0.2727300003081904,-0.35787924873968685,1.01
103,0.7331348695053648,4.053965808530051,-4.055863900353607,1.6703475387755482,-0.20473256639745888,-0.2646554972687176,-0.3715400974615767,1.02
104,0.692008797178186,4.071466027171163,-4.169015088779545,1.8370780306593775,-0.19076688350720586,-0.25572674553335034,-0.38498289283534304,1.03
105,0.6497966690268244,4.090819396456279,-4.272781289022145,2.043122183539713,-0.17615648871136524,-0.2459320238746971,-0.39810341761629986,1.04
106,0.6065987670059476,4.112477543761598,-4.365807948991676,2.30101816821649,-0.16092382140588535,-0.23526640537270618,-0.4107958643987695,1.05
107,0.562530797833317,4.137042002749561,-4.4463314675231835,2.6286324227823155,-0.14509899686842054,-0.2237323480901375,-0.42295403713152047,1.06
108,0.517729022107044,4.1653305467779,-4.511949196463879,3.05203307084568,-0.12871994786600108,-0.2113401807594815,-0.4344726723488183,1.07
109,0.4723584167958915,4.198480743728606,-4.559224737433739,3.6102551368425577,-0.11183243154010636,-0.19810846051128891,-0.44524885752764654,1.08
110,0.4266261386951416,4.23811612460263,-4.58298707961151,4.363413270675243,-0.09448989982321773,-0.18406418145368644,-0.45518351896480463,1.09
111,0.38080459201204175,4.286620307259217,-4.57503870520157,5.406825614332358,-0.0767532415050963,-0.1692428166803422,-0.4641829476839541,1.1
112,0.33527257685648615,4.347600375014509,-4.521680973678189,6.89584265660417,-0.05869041561832251,-0.15368818444674465,-0.4721603298414766,1.11
113,0.29059174425761314,4.426679763852422,-4.398813170039742,9.088330469926692,-0.04037599894244089,-0.1374521486906642,-0.4790372485827376,1.12
114,0.24765364052932445,4.532821306705282,-4.1621139922971615,12.40722109007551,-0.02189061344208775,-0.12059421020475737,-0.4847451263377693,1.1300000000000001
115,0.2079648493781073,4.680224926584358,-3.7285631491544886,17.47299768968949,-0.003319867998878151,-0.1031811198364417,-0.489226568151984,1.1400000000000001
116,0.17415697106646505,4.889314183877713,-2.952426340338495,24.784874645530355,0.015248770215365474,-0.08528648570841123,-0.49243648358181985,1.1500000000000001
117,0.15057475677680923,5.178900608788133,-1.6537344845717672,33.050422591704795,0.033734447767269596,-0.06698856500839713,-0.49434251202172885,1.16
118,0.14261432128101556,5.534681837343239,0.12940687651152358,36.80976725181442,0.05207040880174434,-0.048363257236394036,-0.4949239010966288,1.17
119,0.15285013124294464,5.88540087308932,1.873856742216643,32.07152951548893,0.07018387929012451,-0.02949014672427676,-0.49417057210437965,1.18
120,0.17814883988787975,6.164698812516991,3.10095877637685,23.658828904351633,0.08798277703780032,-0.010473830987782526,-0.49208670964491213,1.19
121,0.21306589833824627,6.364404371528037,3.820664324363809,16.599713137351696,0.10538019933337477,0.008577750638619302,-0.4886936011269637,1.2
122,0.2534419089010323,6.504932022522459,4.218710481394736,11.795646460132042,0.12229901706995541,0.02757282717903637,-0.48402757114143585,1.21
123,0.29680644442261467,6.6062755039981385,4.433752330924525,8.663348147176817,0.13866757743960156,0.04642902366925038,-0.47813768804409496,1.22
124,0.34175172028763595,6.681976805534672,4.542932605257003,6.59391142862952,0.15442002726896306,0.06506787721155255,-0.47108452164493264,1.23
125,0.3874428529559956,6.740514716366974,4.58715554204694,5.185838130618682,0.16949756377430356,0.08341433045080117,-0.46293911624534434,1.24
126,0.4333511331033122,6.787199818453244,4.588655239878305,4.196785496534764,0.18384925079735503,0.1013977527304908,-0.45378182943178486,1.25
127,0.4791176564050512,6.82544101680709,4.560099781326904,3.4811330252999313,0.19743246965823721,0.11895306333457652,-0.443701012674041,1.26
128,0.5244825819062725,6.857494753999659,4.509099150463846,2.94950362711922,0.21021313226943245,0.13602163886560872,-0.4327915812279486,1.27
129,0.5692470494397465,6.88490100648123,4.440476719788483,2.545443870429406,0.2221657109142214,0.15255197188504047,-0.4211535263629695,1.28
130,0.6132518029263274,6.908740997603629,4.357455524255471,2.2322234239580947,0.2332731070661311,0.16850010029826,-0.40889041773950835,1.29
131,0.6563646916940311,6.929793523305401,4.262302676422721,1.9852613659666043,0.24352637408548441,0.18382983122263727,-0.39610793766022084,1.3
132,0.6984730775088158,6.948632503114428,4.156692872426907,1.7876752243383396,0.2529243093123589,0.19851278097661276,-0.382912482883227,1.31
133,0.7394790524538,6.965689568465906,4.041920551967867,1.6275935408240325,0.2614729335130038,0.2125282516201641,-0.36940986357077754,1.32
134,0.7792963202982486,6.981295279080837,3.9190274966267404,1.4964888381979675,0.26918487771505506,0.2258629644251506,-0.3557041227067997,1.33
135,0.8178480905398537,6.9957069239799035,3.7888815949537595,1.3881166245726766,0.2760786986119598,0.23851067105561635,-0.34189649305795206,1.34
136,0.8550656041836484,7.0091276885919145,3.6522265721395315,1.2978237449296004,0.2821781438699567,0.2504716635413931,-0.3280845026588625,1.35
